             #w        R(w)_min        R(w)_max        R(w)_avg
  0.5000000E+00  -0.1291354E-03  -0.3261945E-04  -0.5651862E-04
  0.1500000E+01  -0.1436096E-03  -0.3845438E-04  -0.6505944E-04
  0.2500000E+01  -0.1595642E-03  -0.4520524E-04  -0.7473861E-04
  0.3500000E+01  -0.1771313E-03  -0.5299360E-04  -0.8568488E-04
  0.4500000E+01  -0.1964521E-03  -0.6195372E-04  -0.9803840E-04
  0.5500000E+01  -0.2176782E-03  -0.7223344E-04  -0.1119514E-03
  0.6500000E+01  -0.2409709E-03  -0.8399498E-04  -0.1275888E-03
  0.7500000E+01  -0.2665026E-03  -0.9741583E-04  -0.1451288E-03
  0.8500000E+01  -0.2944566E-03  -0.1126896E-03  -0.1647636E-03
  0.9500000E+01  -0.3250276E-03  -0.1300267E-03  -0.1866997E-03
  0.1050000E+02  -0.3584221E-03  -0.1496554E-03  -0.2111588E-03
  0.1150000E+02  -0.3948589E-03  -0.1718222E-03  -0.2383780E-03
  0.1250000E+02  -0.4345689E-03  -0.1967929E-03  -0.2686105E-03
  0.1350000E+02  -0.4777961E-03  -0.2248529E-03  -0.3021259E-03
  0.1450000E+02  -0.5247970E-03  -0.2563078E-03  -0.3392105E-03
  0.1550000E+02  -0.5758416E-03  -0.2914841E-03  -0.3801678E-03
  0.1650000E+02  -0.6312128E-03  -0.3307295E-03  -0.4253185E-03
  0.1750000E+02  -0.6912073E-03  -0.3744128E-03  -0.4750007E-03
  0.1850000E+02  -0.7561348E-03  -0.4229246E-03  -0.5295703E-03
  0.1950000E+02  -0.8263187E-03  -0.4766770E-03  -0.5894005E-03
  0.2050000E+02  -0.9020956E-03  -0.5361037E-03  -0.6548819E-03
  0.2150000E+02  -0.9838153E-03  -0.6016595E-03  -0.7264224E-03
  0.2250000E+02  -0.1071841E-02  -0.6738204E-03  -0.8044466E-03
  0.2350000E+02  -0.1166548E-02  -0.7530827E-03  -0.8893959E-03
  0.2450000E+02  -0.1268324E-02  -0.8399622E-03  -0.9817273E-03
  0.2550000E+02  -0.1377569E-02  -0.9349940E-03  -0.1081913E-02
  0.2650000E+02  -0.1494695E-02  -0.1038731E-02  -0.1190441E-02
  0.2750000E+02  -0.1620124E-02  -0.1151742E-02  -0.1307810E-02
  0.2850000E+02  -0.1754289E-02  -0.1274614E-02  -0.1434535E-02
  0.2950000E+02  -0.1897631E-02  -0.1407944E-02  -0.1571139E-02
  0.3050000E+02  -0.2050602E-02  -0.1552345E-02  -0.1718159E-02
  0.3150000E+02  -0.2213660E-02  -0.1708438E-02  -0.1876138E-02
  0.3250000E+02  -0.2387270E-02  -0.1876854E-02  -0.2045627E-02
  0.3350000E+02  -0.2571904E-02  -0.2058231E-02  -0.2227184E-02
  0.3450000E+02  -0.2768036E-02  -0.2253210E-02  -0.2421370E-02
  0.3550000E+02  -0.2976146E-02  -0.2462436E-02  -0.2628751E-02
  0.3650000E+02  -0.3196715E-02  -0.2686551E-02  -0.2849890E-02
  0.3750000E+02  -0.3430224E-02  -0.2926196E-02  -0.3085350E-02
  0.3850000E+02  -0.3677154E-02  -0.3182008E-02  -0.3335693E-02
  0.3950000E+02  -0.3937983E-02  -0.3454612E-02  -0.3601473E-02
  0.4050000E+02  -0.4213187E-02  -0.3744625E-02  -0.3883236E-02
  0.4150000E+02  -0.4503233E-02  -0.4052650E-02  -0.4181521E-02
  0.4250000E+02  -0.4808585E-02  -0.4379273E-02  -0.4496853E-02
  0.4350000E+02  -0.5129696E-02  -0.4725060E-02  -0.4829744E-02
  0.4450000E+02  -0.5467007E-02  -0.5090557E-02  -0.5180688E-02
  0.4550000E+02  -0.5820951E-02  -0.5476284E-02  -0.5550162E-02
  0.4650000E+02  -0.6191942E-02  -0.5882733E-02  -0.5938621E-02
  0.4750000E+02  -0.6580382E-02  -0.6310366E-02  -0.6346498E-02
  0.4850000E+02  -0.6986653E-02  -0.6759614E-02  -0.6774200E-02
  0.4950000E+02  -0.7411119E-02  -0.7222105E-02  -0.7222105E-02
  0.5050000E+02  -0.7854123E-02  -0.7690565E-02  -0.7690565E-02
  0.5150000E+02  -0.8315984E-02  -0.8179897E-02  -0.8179897E-02
  0.5250000E+02  -0.8796997E-02  -0.8690388E-02  -0.8690388E-02
  0.5350000E+02  -0.9342487E-02  -0.9222287E-02  -0.9222287E-02
  0.5450000E+02  -0.9928298E-02  -0.9775806E-02  -0.9775806E-02
  0.5550000E+02  -0.1053761E-01  -0.1035112E-01  -0.1035112E-01
  0.5650000E+02  -0.1117053E-01  -0.1091753E-01  -0.1094837E-01
  0.5750000E+02  -0.1182707E-01  -0.1149776E-01  -0.1156763E-01
  0.5850000E+02  -0.1250723E-01  -0.1209831E-01  -0.1220897E-01
  0.5950000E+02  -0.1321093E-01  -0.1271926E-01  -0.1287239E-01
  0.6050000E+02  -0.1393807E-01  -0.1336065E-01  -0.1355786E-01
  0.6150000E+02  -0.1468847E-01  -0.1402251E-01  -0.1426528E-01
  0.6250000E+02  -0.1546190E-01  -0.1470478E-01  -0.1499453E-01
  0.6350000E+02  -0.1625807E-01  -0.1540742E-01  -0.1574544E-01
  0.6450000E+02  -0.1707667E-01  -0.1613030E-01  -0.1651778E-01
  0.6550000E+02  -0.1791729E-01  -0.1687328E-01  -0.1731129E-01
  0.6650000E+02  -0.1877950E-01  -0.1763619E-01  -0.1812565E-01
  0.6750000E+02  -0.1966280E-01  -0.1841878E-01  -0.1896049E-01
  0.6850000E+02  -0.2056666E-01  -0.1922080E-01  -0.1981542E-01
  0.6950000E+02  -0.2149048E-01  -0.2004193E-01  -0.2068997E-01
  0.7050000E+02  -0.2243363E-01  -0.2088182E-01  -0.2158366E-01
  0.7150000E+02  -0.2339540E-01  -0.2174009E-01  -0.2249594E-01
  0.7250000E+02  -0.2437508E-01  -0.2261631E-01  -0.2342622E-01
  0.7350000E+02  -0.2537188E-01  -0.2351002E-01  -0.2437388E-01
  0.7450000E+02  -0.2638499E-01  -0.2442069E-01  -0.2533826E-01
  0.7550000E+02  -0.2741355E-01  -0.2534780E-01  -0.2631865E-01
  0.7650000E+02  -0.2845667E-01  -0.2629076E-01  -0.2731432E-01
  0.7750000E+02  -0.2951342E-01  -0.2724896E-01  -0.2832447E-01
  0.7850000E+02  -0.3058284E-01  -0.2822173E-01  -0.2934832E-01
  0.7950000E+02  -0.3166395E-01  -0.2920840E-01  -0.3038500E-01
  0.8050000E+02  -0.3275573E-01  -0.3020826E-01  -0.3143365E-01
  0.8150000E+02  -0.3385714E-01  -0.3122055E-01  -0.3249338E-01
  0.8250000E+02  -0.3496712E-01  -0.3224449E-01  -0.3356326E-01
  0.8350000E+02  -0.3608459E-01  -0.3327929E-01  -0.3464233E-01
  0.8450000E+02  -0.3720845E-01  -0.3432411E-01  -0.3572964E-01
  0.8550000E+02  -0.3833760E-01  -0.3537810E-01  -0.3682420E-01
  0.8650000E+02  -0.3947091E-01  -0.3644038E-01  -0.3792499E-01
  0.8750000E+02  -0.4060727E-01  -0.3751006E-01  -0.3903102E-01
  0.8850000E+02  -0.4174553E-01  -0.3858623E-01  -0.4014124E-01
  0.8950000E+02  -0.4288458E-01  -0.3966794E-01  -0.4125462E-01
  0.9050000E+02  -0.4402327E-01  -0.4075427E-01  -0.4237012E-01
  0.9150000E+02  -0.4516048E-01  -0.4184425E-01  -0.4348668E-01
  0.9250000E+02  -0.4629508E-01  -0.4293692E-01  -0.4460326E-01
  0.9350000E+02  -0.4742596E-01  -0.4403130E-01  -0.4571882E-01
  0.9450000E+02  -0.4855202E-01  -0.4512642E-01  -0.4683229E-01
  0.9550000E+02  -0.4967217E-01  -0.4622128E-01  -0.4794264E-01
  0.9650000E+02  -0.5078532E-01  -0.4731491E-01  -0.4904884E-01
  0.9750000E+02  -0.5189043E-01  -0.4840632E-01  -0.5014985E-01
  0.9850000E+02  -0.5298646E-01  -0.4949453E-01  -0.5124467E-01
  0.9950000E+02  -0.5407238E-01  -0.5057855E-01  -0.5233229E-01
  0.1005000E+03  -0.5514721E-01  -0.5165743E-01  -0.5341173E-01
  0.1015000E+03  -0.5620998E-01  -0.5273020E-01  -0.5448202E-01
  0.1025000E+03  -0.5725974E-01  -0.5379590E-01  -0.5554221E-01
  0.1035000E+03  -0.5829559E-01  -0.5485359E-01  -0.5659136E-01
  0.1045000E+03  -0.5931663E-01  -0.5590236E-01  -0.5762858E-01
  0.1055000E+03  -0.6032202E-01  -0.5694128E-01  -0.5865298E-01
  0.1065000E+03  -0.6131094E-01  -0.5796947E-01  -0.5966369E-01
  0.1075000E+03  -0.6228259E-01  -0.5898605E-01  -0.6065989E-01
  0.1085000E+03  -0.6323621E-01  -0.5999017E-01  -0.6164077E-01
  0.1095000E+03  -0.6417110E-01  -0.6098098E-01  -0.6260556E-01
  0.1105000E+03  -0.6508657E-01  -0.6195770E-01  -0.6355350E-01
  0.1115000E+03  -0.6598196E-01  -0.6291952E-01  -0.6448387E-01
  0.1125000E+03  -0.6685666E-01  -0.6386569E-01  -0.6539601E-01
  0.1135000E+03  -0.6771010E-01  -0.6479547E-01  -0.6628924E-01
  0.1145000E+03  -0.6854174E-01  -0.6570816E-01  -0.6716294E-01
  0.1155000E+03  -0.6935107E-01  -0.6660308E-01  -0.6801654E-01
  0.1165000E+03  -0.7013763E-01  -0.6747958E-01  -0.6884946E-01
  0.1175000E+03  -0.7090099E-01  -0.6833704E-01  -0.6966120E-01
  0.1185000E+03  -0.7164075E-01  -0.6917487E-01  -0.7045125E-01
  0.1195000E+03  -0.7235657E-01  -0.6999250E-01  -0.7121917E-01
  0.1205000E+03  -0.7304812E-01  -0.7078942E-01  -0.7196454E-01
  0.1215000E+03  -0.7371513E-01  -0.7156513E-01  -0.7268697E-01
  0.1225000E+03  -0.7435733E-01  -0.7231916E-01  -0.7338611E-01
  0.1235000E+03  -0.7497452E-01  -0.7305109E-01  -0.7406163E-01
  0.1245000E+03  -0.7556653E-01  -0.7376050E-01  -0.7471326E-01
  0.1255000E+03  -0.7613319E-01  -0.7444704E-01  -0.7534073E-01
  0.1265000E+03  -0.7667441E-01  -0.7511036E-01  -0.7594384E-01
  0.1275000E+03  -0.7719010E-01  -0.7575017E-01  -0.7652239E-01
  0.1285000E+03  -0.7768022E-01  -0.7636620E-01  -0.7707623E-01
  0.1295000E+03  -0.7814475E-01  -0.7695820E-01  -0.7760523E-01
  0.1305000E+03  -0.7858369E-01  -0.7752596E-01  -0.7810930E-01
  0.1315000E+03  -0.7899709E-01  -0.7806931E-01  -0.7858838E-01
  0.1325000E+03  -0.7938502E-01  -0.7858811E-01  -0.7904242E-01
  0.1335000E+03  -0.7974757E-01  -0.7908222E-01  -0.7947143E-01
  0.1345000E+03  -0.8008486E-01  -0.7955158E-01  -0.7987542E-01
  0.1355000E+03  -0.8039705E-01  -0.7999611E-01  -0.8025445E-01
  0.1365000E+03  -0.8068430E-01  -0.8041579E-01  -0.8060858E-01
  0.1375000E+03  -0.8094680E-01  -0.8081062E-01  -0.8093792E-01
  0.1385000E+03  -0.8124259E-01  -0.8118062E-01  -0.8124259E-01
  0.1395000E+03  -0.8152584E-01  -0.8139845E-01  -0.8152273E-01
  0.1405000E+03  -0.8184636E-01  -0.8158808E-01  -0.8177852E-01
  0.1415000E+03  -0.8214228E-01  -0.8175395E-01  -0.8201015E-01
  0.1425000E+03  -0.8241372E-01  -0.8189636E-01  -0.8221784E-01
  0.1435000E+03  -0.8266084E-01  -0.8201559E-01  -0.8240180E-01
  0.1445000E+03  -0.8288380E-01  -0.8211199E-01  -0.8256230E-01
  0.1455000E+03  -0.8308279E-01  -0.8218589E-01  -0.8269959E-01
  0.1465000E+03  -0.8325803E-01  -0.8223765E-01  -0.8281398E-01
  0.1475000E+03  -0.8340974E-01  -0.8226763E-01  -0.8290575E-01
  0.1485000E+03  -0.8353819E-01  -0.8227620E-01  -0.8297523E-01
  0.1495000E+03  -0.8364363E-01  -0.8226377E-01  -0.8302274E-01
  0.1505000E+03  -0.8372636E-01  -0.8223072E-01  -0.8304863E-01
  0.1515000E+03  -0.8378666E-01  -0.8217746E-01  -0.8305325E-01
  0.1525000E+03  -0.8382487E-01  -0.8210442E-01  -0.8303698E-01
  0.1535000E+03  -0.8384130E-01  -0.8201201E-01  -0.8300018E-01
  0.1545000E+03  -0.8383631E-01  -0.8190066E-01  -0.8294325E-01
  0.1555000E+03  -0.8381025E-01  -0.8177081E-01  -0.8286659E-01
  0.1565000E+03  -0.8376348E-01  -0.8162289E-01  -0.8277059E-01
  0.1575000E+03  -0.8369638E-01  -0.8145736E-01  -0.8265567E-01
  0.1585000E+03  -0.8360935E-01  -0.8127467E-01  -0.8252225E-01
  0.1595000E+03  -0.8350278E-01  -0.8107525E-01  -0.8237076E-01
  0.1605000E+03  -0.8337707E-01  -0.8085956E-01  -0.8220161E-01
  0.1615000E+03  -0.8323264E-01  -0.8062807E-01  -0.8201524E-01
  0.1625000E+03  -0.8306991E-01  -0.8038121E-01  -0.8181210E-01
  0.1635000E+03  -0.8288929E-01  -0.8011945E-01  -0.8159261E-01
  0.1645000E+03  -0.8269123E-01  -0.7984324E-01  -0.8135722E-01
  0.1655000E+03  -0.8247616E-01  -0.7955303E-01  -0.8110637E-01
  0.1665000E+03  -0.8224450E-01  -0.7924928E-01  -0.8084050E-01
  0.1675000E+03  -0.8199672E-01  -0.7893243E-01  -0.8056007E-01
  0.1685000E+03  -0.8173324E-01  -0.7860293E-01  -0.8026551E-01
  0.1695000E+03  -0.8145451E-01  -0.7826123E-01  -0.7995726E-01
  0.1705000E+03  -0.8116099E-01  -0.7790776E-01  -0.7963577E-01
  0.1715000E+03  -0.8085311E-01  -0.7754297E-01  -0.7930148E-01
  0.1725000E+03  -0.8053133E-01  -0.7716728E-01  -0.7895482E-01
  0.1735000E+03  -0.8019609E-01  -0.7678112E-01  -0.7859624E-01
  0.1745000E+03  -0.7984783E-01  -0.7638492E-01  -0.7822615E-01
  0.1755000E+03  -0.7948700E-01  -0.7597909E-01  -0.7784500E-01
  0.1765000E+03  -0.7911404E-01  -0.7556405E-01  -0.7745320E-01
  0.1775000E+03  -0.7872938E-01  -0.7514021E-01  -0.7705118E-01
  0.1785000E+03  -0.7833347E-01  -0.7470796E-01  -0.7663935E-01
  0.1795000E+03  -0.7792674E-01  -0.7426770E-01  -0.7621812E-01
  0.1805000E+03  -0.7750961E-01  -0.7381982E-01  -0.7578791E-01
  0.1815000E+03  -0.7708251E-01  -0.7336470E-01  -0.7534910E-01
  0.1825000E+03  -0.7664586E-01  -0.7290273E-01  -0.7490210E-01
  0.1835000E+03  -0.7620007E-01  -0.7243425E-01  -0.7444729E-01
  0.1845000E+03  -0.7574555E-01  -0.7195965E-01  -0.7398506E-01
  0.1855000E+03  -0.7528272E-01  -0.7147926E-01  -0.7351579E-01
  0.1865000E+03  -0.7481196E-01  -0.7099345E-01  -0.7303984E-01
  0.1875000E+03  -0.7433367E-01  -0.7050255E-01  -0.7255759E-01
  0.1885000E+03  -0.7384824E-01  -0.7000689E-01  -0.7206938E-01
  0.1895000E+03  -0.7335605E-01  -0.6950681E-01  -0.7157557E-01
  0.1905000E+03  -0.7285747E-01  -0.6900260E-01  -0.7107650E-01
  0.1915000E+03  -0.7235287E-01  -0.6849460E-01  -0.7057252E-01
  0.1925000E+03  -0.7184262E-01  -0.6798310E-01  -0.7006394E-01
  0.1935000E+03  -0.7132706E-01  -0.6746840E-01  -0.6955109E-01
  0.1945000E+03  -0.7080654E-01  -0.6695078E-01  -0.6903429E-01
  0.1955000E+03  -0.7028141E-01  -0.6643053E-01  -0.6851385E-01
  0.1965000E+03  -0.6975199E-01  -0.6590792E-01  -0.6799006E-01
  0.1975000E+03  -0.6921862E-01  -0.6538322E-01  -0.6746322E-01
  0.1985000E+03  -0.6868160E-01  -0.6485668E-01  -0.6693362E-01
  0.1995000E+03  -0.6814126E-01  -0.6432856E-01  -0.6640154E-01
  0.2005000E+03  -0.6759789E-01  -0.6379910E-01  -0.6586724E-01
  0.2015000E+03  -0.6705179E-01  -0.6326854E-01  -0.6533099E-01
  0.2025000E+03  -0.6650325E-01  -0.6273710E-01  -0.6479306E-01
  0.2035000E+03  -0.6595254E-01  -0.6220502E-01  -0.6425368E-01
  0.2045000E+03  -0.6539995E-01  -0.6167250E-01  -0.6371310E-01
  0.2055000E+03  -0.6484575E-01  -0.6113976E-01  -0.6317157E-01
  0.2065000E+03  -0.6429017E-01  -0.6060699E-01  -0.6262930E-01
  0.2075000E+03  -0.6373349E-01  -0.6007440E-01  -0.6208652E-01
  0.2085000E+03  -0.6317595E-01  -0.5954217E-01  -0.6154344E-01
  0.2095000E+03  -0.6261777E-01  -0.5901048E-01  -0.6100028E-01
  0.2105000E+03  -0.6205920E-01  -0.5847951E-01  -0.6045723E-01
  0.2115000E+03  -0.6150044E-01  -0.5794943E-01  -0.5991448E-01
  0.2125000E+03  -0.6094173E-01  -0.5742040E-01  -0.5937224E-01
  0.2135000E+03  -0.6038327E-01  -0.5689258E-01  -0.5883067E-01
  0.2145000E+03  -0.5982525E-01  -0.5636612E-01  -0.5828996E-01
  0.2155000E+03  -0.5926788E-01  -0.5584116E-01  -0.5775027E-01
  0.2165000E+03  -0.5871133E-01  -0.5531785E-01  -0.5721177E-01
  0.2175000E+03  -0.5815580E-01  -0.5479632E-01  -0.5667461E-01
  0.2185000E+03  -0.5760146E-01  -0.5427669E-01  -0.5613895E-01
  0.2195000E+03  -0.5704848E-01  -0.5375910E-01  -0.5560492E-01
  0.2205000E+03  -0.5649701E-01  -0.5324365E-01  -0.5507267E-01
  0.2215000E+03  -0.5594722E-01  -0.5273047E-01  -0.5454234E-01
  0.2225000E+03  -0.5539925E-01  -0.5221965E-01  -0.5401404E-01
  0.2235000E+03  -0.5485325E-01  -0.5171130E-01  -0.5348791E-01
  0.2245000E+03  -0.5430935E-01  -0.5120552E-01  -0.5296406E-01
  0.2255000E+03  -0.5376770E-01  -0.5070240E-01  -0.5244260E-01
  0.2265000E+03  -0.5322840E-01  -0.5020203E-01  -0.5192364E-01
  0.2275000E+03  -0.5269159E-01  -0.4970449E-01  -0.5140729E-01
  0.2285000E+03  -0.5215738E-01  -0.4920987E-01  -0.5089363E-01
  0.2295000E+03  -0.5162588E-01  -0.4871823E-01  -0.5038277E-01
  0.2305000E+03  -0.5109720E-01  -0.4822966E-01  -0.4987479E-01
  0.2315000E+03  -0.5057143E-01  -0.4774421E-01  -0.4936977E-01
  0.2325000E+03  -0.5004867E-01  -0.4726195E-01  -0.4886780E-01
  0.2335000E+03  -0.4952902E-01  -0.4678295E-01  -0.4836895E-01
  0.2345000E+03  -0.4901254E-01  -0.4630725E-01  -0.4787329E-01
  0.2355000E+03  -0.4849934E-01  -0.4583490E-01  -0.4738089E-01
  0.2365000E+03  -0.4798948E-01  -0.4536597E-01  -0.4689180E-01
  0.2375000E+03  -0.4748303E-01  -0.4490049E-01  -0.4640610E-01
  0.2385000E+03  -0.4698006E-01  -0.4443850E-01  -0.4592383E-01
  0.2395000E+03  -0.4648065E-01  -0.4398005E-01  -0.4544505E-01
  0.2405000E+03  -0.4598483E-01  -0.4352517E-01  -0.4496980E-01
  0.2415000E+03  -0.4549268E-01  -0.4307389E-01  -0.4449814E-01
  0.2425000E+03  -0.4500425E-01  -0.4262625E-01  -0.4403010E-01
  0.2435000E+03  -0.4451958E-01  -0.4218227E-01  -0.4356572E-01
  0.2445000E+03  -0.4403871E-01  -0.4174198E-01  -0.4310503E-01
  0.2455000E+03  -0.4356170E-01  -0.4130539E-01  -0.4264808E-01
  0.2465000E+03  -0.4308857E-01  -0.4087254E-01  -0.4219488E-01
  0.2475000E+03  -0.4261936E-01  -0.4044343E-01  -0.4174547E-01
  0.2485000E+03  -0.4215411E-01  -0.4001808E-01  -0.4129987E-01
  0.2495000E+03  -0.4169284E-01  -0.3959651E-01  -0.4085811E-01
  0.2505000E+03  -0.4123557E-01  -0.3917872E-01  -0.4042019E-01
  0.2515000E+03  -0.4078234E-01  -0.3876473E-01  -0.3998614E-01
  0.2525000E+03  -0.4033316E-01  -0.3835454E-01  -0.3955597E-01
  0.2535000E+03  -0.3988805E-01  -0.3794815E-01  -0.3912970E-01
  0.2545000E+03  -0.3944703E-01  -0.3754558E-01  -0.3870733E-01
  0.2555000E+03  -0.3901010E-01  -0.3714681E-01  -0.3828887E-01
  0.2565000E+03  -0.3857728E-01  -0.3675185E-01  -0.3787433E-01
  0.2575000E+03  -0.3814857E-01  -0.3636070E-01  -0.3746371E-01
  0.2585000E+03  -0.3772399E-01  -0.3597335E-01  -0.3705701E-01
  0.2595000E+03  -0.3730353E-01  -0.3558981E-01  -0.3665424E-01
  0.2605000E+03  -0.3688720E-01  -0.3521005E-01  -0.3625539E-01
  0.2615000E+03  -0.3647499E-01  -0.3483408E-01  -0.3586046E-01
  0.2625000E+03  -0.3606691E-01  -0.3446188E-01  -0.3546944E-01
  0.2635000E+03  -0.3566295E-01  -0.3409344E-01  -0.3508233E-01
  0.2645000E+03  -0.3526310E-01  -0.3372876E-01  -0.3469912E-01
  0.2655000E+03  -0.3486737E-01  -0.3336782E-01  -0.3431980E-01
  0.2665000E+03  -0.3447573E-01  -0.3301060E-01  -0.3394436E-01
  0.2675000E+03  -0.3408818E-01  -0.3265709E-01  -0.3357279E-01
  0.2685000E+03  -0.3370471E-01  -0.3230728E-01  -0.3320507E-01
  0.2695000E+03  -0.3332530E-01  -0.3196114E-01  -0.3284120E-01
  0.2705000E+03  -0.3294994E-01  -0.3161866E-01  -0.3248115E-01
  0.2715000E+03  -0.3257862E-01  -0.3127983E-01  -0.3212491E-01
  0.2725000E+03  -0.3221131E-01  -0.3094461E-01  -0.3177246E-01
  0.2735000E+03  -0.3184801E-01  -0.3061300E-01  -0.3142379E-01
  0.2745000E+03  -0.3148868E-01  -0.3028496E-01  -0.3107888E-01
  0.2755000E+03  -0.3113332E-01  -0.2996048E-01  -0.3073770E-01
  0.2765000E+03  -0.3078189E-01  -0.2963954E-01  -0.3040023E-01
  0.2775000E+03  -0.3043438E-01  -0.2932211E-01  -0.3006646E-01
  0.2785000E+03  -0.3009077E-01  -0.2900818E-01  -0.2973636E-01
  0.2795000E+03  -0.2975103E-01  -0.2869770E-01  -0.2940991E-01
  0.2805000E+03  -0.2941513E-01  -0.2839067E-01  -0.2908708E-01
  0.2815000E+03  -0.2908306E-01  -0.2808706E-01  -0.2876785E-01
  0.2825000E+03  -0.2875479E-01  -0.2778683E-01  -0.2845220E-01
  0.2835000E+03  -0.2843028E-01  -0.2748997E-01  -0.2814009E-01
  0.2845000E+03  -0.2810952E-01  -0.2719645E-01  -0.2783152E-01
  0.2855000E+03  -0.2779247E-01  -0.2690625E-01  -0.2752644E-01
  0.2865000E+03  -0.2747911E-01  -0.2661932E-01  -0.2722483E-01
  0.2875000E+03  -0.2716940E-01  -0.2633566E-01  -0.2692666E-01
  0.2885000E+03  -0.2686333E-01  -0.2605523E-01  -0.2663192E-01
  0.2895000E+03  -0.2656086E-01  -0.2577800E-01  -0.2634056E-01
  0.2905000E+03  -0.2626196E-01  -0.2550395E-01  -0.2605256E-01
  0.2915000E+03  -0.2596660E-01  -0.2523304E-01  -0.2576790E-01
  0.2925000E+03  -0.2567475E-01  -0.2496526E-01  -0.2548654E-01
  0.2935000E+03  -0.2538638E-01  -0.2470057E-01  -0.2520846E-01
  0.2945000E+03  -0.2510145E-01  -0.2443894E-01  -0.2493362E-01
  0.2955000E+03  -0.2481995E-01  -0.2418034E-01  -0.2466200E-01
  0.2965000E+03  -0.2454183E-01  -0.2392475E-01  -0.2439357E-01
  0.2975000E+03  -0.2426706E-01  -0.2367214E-01  -0.2412830E-01
  0.2985000E+03  -0.2399561E-01  -0.2342248E-01  -0.2386616E-01
  0.2995000E+03  -0.2372746E-01  -0.2317573E-01  -0.2360711E-01
  0.3005000E+03  -0.2346256E-01  -0.2293188E-01  -0.2335113E-01
  0.3015000E+03  -0.2320089E-01  -0.2269089E-01  -0.2309820E-01
  0.3025000E+03  -0.2294242E-01  -0.2245274E-01  -0.2284827E-01
  0.3035000E+03  -0.2268710E-01  -0.2221738E-01  -0.2260132E-01
  0.3045000E+03  -0.2243491E-01  -0.2198481E-01  -0.2235732E-01
  0.3055000E+03  -0.2218582E-01  -0.2175498E-01  -0.2211624E-01
  0.3065000E+03  -0.2193980E-01  -0.2152787E-01  -0.2187805E-01
  0.3075000E+03  -0.2169681E-01  -0.2130345E-01  -0.2164272E-01
  0.3085000E+03  -0.2145681E-01  -0.2108169E-01  -0.2141022E-01
  0.3095000E+03  -0.2121979E-01  -0.2086256E-01  -0.2118051E-01
  0.3105000E+03  -0.2098570E-01  -0.2064604E-01  -0.2095358E-01
