             #w        R(w)_min        R(w)_max        R(w)_avg
  0.5000000E+00   0.1014257E-06   0.9650513E-05   0.1711935E-05
  0.1500000E+01   0.1014477E-06   0.8133190E-05   0.1597982E-05
  0.2500000E+01   0.1035724E-06   0.6975649E-05   0.1498759E-05
  0.3500000E+01   0.1073377E-06   0.6071315E-05   0.1412192E-05
  0.4500000E+01   0.1124174E-06   0.5349724E-05   0.1336556E-05
  0.5500000E+01   0.1185630E-06   0.4763096E-05   0.1270412E-05
  0.6500000E+01   0.1255720E-06   0.4278289E-05   0.1212551E-05
  0.7500000E+01   0.1332713E-06   0.3871844E-05   0.1161956E-05
  0.8500000E+01   0.1415084E-06   0.3526845E-05   0.1117770E-05
  0.9500000E+01   0.1501490E-06   0.3230881E-05   0.1079268E-05
  0.1050000E+02   0.1590763E-06   0.2974695E-05   0.1045832E-05
  0.1150000E+02   0.1681918E-06   0.2751278E-05   0.1016941E-05
  0.1250000E+02   0.1774167E-06   0.2555238E-05   0.9921476E-06
  0.1350000E+02   0.1866931E-06   0.2382367E-05   0.9710728E-06
  0.1450000E+02   0.1959836E-06   0.2229333E-05   0.9533929E-06
  0.1550000E+02   0.2052717E-06   0.2093460E-05   0.9388319E-06
  0.1650000E+02   0.2145602E-06   0.1972569E-05   0.9271551E-06
  0.1750000E+02   0.2238699E-06   0.1864863E-05   0.9181631E-06
  0.1850000E+02   0.2332377E-06   0.1768844E-05   0.9116873E-06
  0.1950000E+02   0.2427144E-06   0.1683249E-05   0.9075858E-06
  0.2050000E+02   0.2523628E-06   0.1607004E-05   0.9057402E-06
  0.2150000E+02   0.2622554E-06   0.1539186E-05   0.9060527E-06
  0.2250000E+02   0.2724732E-06   0.1479001E-05   0.9084439E-06
  0.2350000E+02   0.2831039E-06   0.1425759E-05   0.9128508E-06
  0.2450000E+02   0.2942407E-06   0.1378859E-05   0.9192250E-06
  0.2550000E+02   0.3059818E-06   0.1337776E-05   0.9275315E-06
  0.2650000E+02   0.3184299E-06   0.1302052E-05   0.9377473E-06
  0.2750000E+02   0.3316912E-06   0.1271287E-05   0.9498608E-06
  0.2850000E+02   0.3458764E-06   0.1245128E-05   0.9638704E-06
  0.2950000E+02   0.3610998E-06   0.1223271E-05   0.9797843E-06
  0.3050000E+02   0.3774803E-06   0.1205449E-05   0.9976198E-06
  0.3150000E+02   0.3951412E-06   0.1191432E-05   0.1017402E-05
  0.3250000E+02   0.4142107E-06   0.1181022E-05   0.1039166E-05
  0.3350000E+02   0.4348229E-06   0.1174047E-05   0.1062953E-05
  0.3450000E+02   0.4571172E-06   0.1170366E-05   0.1088812E-05
  0.3550000E+02   0.4812398E-06   0.1169858E-05   0.1116800E-05
  0.3650000E+02   0.5073436E-06   0.1172426E-05   0.1146981E-05
  0.3750000E+02   0.5355883E-06   0.1179427E-05   0.1179427E-05
  0.3850000E+02   0.5661417E-06   0.1214216E-05   0.1214216E-05
  0.3950000E+02   0.5991791E-06   0.1251433E-05   0.1251433E-05
  0.4050000E+02   0.6348840E-06   0.1291171E-05   0.1291171E-05
  0.4150000E+02   0.6734480E-06   0.1333530E-05   0.1333530E-05
  0.4250000E+02   0.7150714E-06   0.1378616E-05   0.1378616E-05
  0.4350000E+02   0.7599629E-06   0.1426544E-05   0.1426544E-05
  0.4450000E+02   0.8083395E-06   0.1477435E-05   0.1477435E-05
  0.4550000E+02   0.8604268E-06   0.1531418E-05   0.1531418E-05
  0.4650000E+02   0.9164587E-06   0.1588631E-05   0.1588631E-05
  0.4750000E+02   0.9766770E-06   0.1649216E-05   0.1649216E-05
  0.4850000E+02   0.1041332E-05   0.1713327E-05   0.1713327E-05
  0.4950000E+02   0.1110680E-05   0.1781124E-05   0.1781124E-05
  0.5050000E+02   0.1184987E-05   0.1852774E-05   0.1852774E-05
  0.5150000E+02   0.1264525E-05   0.1928455E-05   0.1928455E-05
  0.5250000E+02   0.1349571E-05   0.2008352E-05   0.2008352E-05
  0.5350000E+02   0.1440410E-05   0.2092659E-05   0.2092659E-05
  0.5450000E+02   0.1537333E-05   0.2181578E-05   0.2181578E-05
  0.5550000E+02   0.1640636E-05   0.2275322E-05   0.2275322E-05
  0.5650000E+02   0.1750618E-05   0.2374111E-05   0.2374111E-05
  0.5750000E+02   0.1867586E-05   0.2478175E-05   0.2478175E-05
  0.5850000E+02   0.1991851E-05   0.2587755E-05   0.2587755E-05
  0.5950000E+02   0.2084757E-05   0.2703100E-05   0.2703100E-05
  0.6050000E+02   0.2169430E-05   0.2824469E-05   0.2824469E-05
  0.6150000E+02   0.2259074E-05   0.2952131E-05   0.2952131E-05
  0.6250000E+02   0.2353902E-05   0.3086367E-05   0.3086367E-05
  0.6350000E+02   0.2454136E-05   0.3227465E-05   0.3227465E-05
  0.6450000E+02   0.2560012E-05   0.3375726E-05   0.3375726E-05
  0.6550000E+02   0.2671773E-05   0.3531460E-05   0.3531460E-05
  0.6650000E+02   0.2789678E-05   0.3694988E-05   0.3694988E-05
  0.6750000E+02   0.2913994E-05   0.3866642E-05   0.3866642E-05
  0.6850000E+02   0.3045002E-05   0.4046763E-05   0.4046763E-05
  0.6950000E+02   0.3182995E-05   0.4235704E-05   0.4235704E-05
  0.7050000E+02   0.3328277E-05   0.4433829E-05   0.4433829E-05
  0.7150000E+02   0.3481166E-05   0.4641512E-05   0.4641512E-05
  0.7250000E+02   0.3641992E-05   0.4859137E-05   0.4859137E-05
  0.7350000E+02   0.3811099E-05   0.5087100E-05   0.5087100E-05
  0.7450000E+02   0.3988844E-05   0.5325807E-05   0.5325807E-05
  0.7550000E+02   0.4175596E-05   0.5575672E-05   0.5575672E-05
  0.7650000E+02   0.4371739E-05   0.5852788E-05   0.5837124E-05
  0.7750000E+02   0.4577671E-05   0.6179815E-05   0.6110597E-05
  0.7850000E+02   0.4793803E-05   0.6521213E-05   0.6396539E-05
  0.7950000E+02   0.5020561E-05   0.6877398E-05   0.6695404E-05
  0.8050000E+02   0.5258384E-05   0.7248789E-05   0.7007659E-05
  0.8150000E+02   0.5507726E-05   0.7635816E-05   0.7333777E-05
  0.8250000E+02   0.5769055E-05   0.8038917E-05   0.7674241E-05
  0.8350000E+02   0.6042852E-05   0.8458538E-05   0.8029543E-05
  0.8450000E+02   0.6329615E-05   0.8895131E-05   0.8400182E-05
  0.8550000E+02   0.6629852E-05   0.9349161E-05   0.8786665E-05
  0.8650000E+02   0.6944088E-05   0.9821096E-05   0.9189507E-05
  0.8750000E+02   0.7272860E-05   0.1031142E-04   0.9609228E-05
  0.8850000E+02   0.7616720E-05   0.1082061E-04   0.1004636E-04
  0.8950000E+02   0.7976232E-05   0.1134916E-04   0.1050142E-04
  0.9050000E+02   0.8351972E-05   0.1189758E-04   0.1097496E-04
  0.9150000E+02   0.8744530E-05   0.1246636E-04   0.1146753E-04
  0.9250000E+02   0.9154507E-05   0.1305603E-04   0.1197965E-04
  0.9350000E+02   0.9582517E-05   0.1366709E-04   0.1251189E-04
  0.9450000E+02   0.1002918E-04   0.1430008E-04   0.1306479E-04
  0.9550000E+02   0.1049514E-04   0.1495550E-04   0.1363891E-04
  0.9650000E+02   0.1098103E-04   0.1563390E-04   0.1423479E-04
  0.9750000E+02   0.1148750E-04   0.1633579E-04   0.1485300E-04
  0.9850000E+02   0.1201523E-04   0.1706171E-04   0.1549408E-04
  0.9950000E+02   0.1256486E-04   0.1781218E-04   0.1615859E-04
  0.1005000E+03   0.1313709E-04   0.1858773E-04   0.1684707E-04
  0.1015000E+03   0.1373259E-04   0.1938888E-04   0.1756007E-04
  0.1025000E+03   0.1435203E-04   0.2021614E-04   0.1829812E-04
  0.1035000E+03   0.1499612E-04   0.2107003E-04   0.1906177E-04
  0.1045000E+03   0.1566554E-04   0.2195106E-04   0.1985153E-04
  0.1055000E+03   0.1636097E-04   0.2285971E-04   0.2066793E-04
  0.1065000E+03   0.1708312E-04   0.2379648E-04   0.2151148E-04
  0.1075000E+03   0.1783266E-04   0.2476183E-04   0.2238269E-04
  0.1085000E+03   0.1861028E-04   0.2575622E-04   0.2328204E-04
  0.1095000E+03   0.1941666E-04   0.2678011E-04   0.2421002E-04
  0.1105000E+03   0.2025249E-04   0.2783391E-04   0.2516708E-04
  0.1115000E+03   0.2111841E-04   0.2891805E-04   0.2615370E-04
  0.1125000E+03   0.2201510E-04   0.3003291E-04   0.2717030E-04
  0.1135000E+03   0.2294320E-04   0.3117887E-04   0.2821732E-04
  0.1145000E+03   0.2390335E-04   0.3235628E-04   0.2929515E-04
  0.1155000E+03   0.2489617E-04   0.3356546E-04   0.3040419E-04
  0.1165000E+03   0.2592227E-04   0.3480671E-04   0.3154481E-04
  0.1175000E+03   0.2698224E-04   0.3608031E-04   0.3271736E-04
  0.1185000E+03   0.2807665E-04   0.3738651E-04   0.3392217E-04
  0.1195000E+03   0.2920606E-04   0.3872554E-04   0.3515955E-04
  0.1205000E+03   0.3037101E-04   0.4009757E-04   0.3642978E-04
  0.1215000E+03   0.3157200E-04   0.4150277E-04   0.3773314E-04
  0.1225000E+03   0.3280951E-04   0.4294127E-04   0.3906985E-04
  0.1235000E+03   0.3408401E-04   0.4441317E-04   0.4044014E-04
  0.1245000E+03   0.3539593E-04   0.4591853E-04   0.4184419E-04
  0.1255000E+03   0.3674568E-04   0.4745738E-04   0.4328216E-04
  0.1265000E+03   0.3813362E-04   0.4902971E-04   0.4475418E-04
  0.1275000E+03   0.3956010E-04   0.5063548E-04   0.4626036E-04
  0.1285000E+03   0.4102544E-04   0.5227462E-04   0.4780078E-04
  0.1295000E+03   0.4252989E-04   0.5394702E-04   0.4937549E-04
  0.1305000E+03   0.4407372E-04   0.5565252E-04   0.5098450E-04
  0.1315000E+03   0.4565711E-04   0.5739095E-04   0.5262780E-04
  0.1325000E+03   0.4728025E-04   0.5916209E-04   0.5430534E-04
  0.1335000E+03   0.4894324E-04   0.6096567E-04   0.5601706E-04
  0.1345000E+03   0.5064620E-04   0.6280141E-04   0.5776284E-04
  0.1355000E+03   0.5238916E-04   0.6466898E-04   0.5954255E-04
  0.1365000E+03   0.5417213E-04   0.6656802E-04   0.6135601E-04
  0.1375000E+03   0.5599509E-04   0.6849813E-04   0.6320302E-04
  0.1385000E+03   0.5785795E-04   0.7045888E-04   0.6508334E-04
  0.1395000E+03   0.5976060E-04   0.7244979E-04   0.6699671E-04
  0.1405000E+03   0.6170289E-04   0.7447038E-04   0.6894283E-04
  0.1415000E+03   0.6368460E-04   0.7652011E-04   0.7092136E-04
  0.1425000E+03   0.6570549E-04   0.7859842E-04   0.7293193E-04
  0.1435000E+03   0.6776527E-04   0.8070471E-04   0.7497414E-04
  0.1445000E+03   0.6986361E-04   0.8283837E-04   0.7704757E-04
  0.1455000E+03   0.7200013E-04   0.8499873E-04   0.7915175E-04
  0.1465000E+03   0.7417441E-04   0.8718512E-04   0.8128619E-04
  0.1475000E+03   0.7638599E-04   0.8939684E-04   0.8345036E-04
  0.1485000E+03   0.7863436E-04   0.9163315E-04   0.8564370E-04
  0.1495000E+03   0.8091897E-04   0.9389330E-04   0.8786562E-04
  0.1505000E+03   0.8323923E-04   0.9617651E-04   0.9011551E-04
  0.1515000E+03   0.8559451E-04   0.9848198E-04   0.9239272E-04
  0.1525000E+03   0.8798415E-04   0.1008089E-03   0.9469658E-04
  0.1535000E+03   0.9040741E-04   0.1031564E-03   0.9702638E-04
  0.1545000E+03   0.9286356E-04   0.1055237E-03   0.9938139E-04
  0.1555000E+03   0.9535180E-04   0.1079098E-03   0.1017609E-03
  0.1565000E+03   0.9787131E-04   0.1103139E-03   0.1041640E-03
  0.1575000E+03   0.1004212E-03   0.1127351E-03   0.1065900E-03
  0.1585000E+03   0.1030006E-03   0.1151724E-03   0.1090380E-03
  0.1595000E+03   0.1056086E-03   0.1176250E-03   0.1115072E-03
  0.1605000E+03   0.1082442E-03   0.1200918E-03   0.1139967E-03
  0.1615000E+03   0.1109064E-03   0.1225720E-03   0.1165056E-03
  0.1625000E+03   0.1135942E-03   0.1250646E-03   0.1190330E-03
  0.1635000E+03   0.1163065E-03   0.1275687E-03   0.1215780E-03
  0.1645000E+03   0.1190422E-03   0.1300832E-03   0.1241395E-03
  0.1655000E+03   0.1218003E-03   0.1326072E-03   0.1267166E-03
  0.1665000E+03   0.1245795E-03   0.1351397E-03   0.1293084E-03
  0.1675000E+03   0.1273787E-03   0.1376797E-03   0.1319138E-03
  0.1685000E+03   0.1301968E-03   0.1402263E-03   0.1345318E-03
  0.1695000E+03   0.1330326E-03   0.1427785E-03   0.1371614E-03
  0.1705000E+03   0.1358847E-03   0.1453353E-03   0.1398016E-03
  0.1715000E+03   0.1387520E-03   0.1478957E-03   0.1424512E-03
  0.1725000E+03   0.1416333E-03   0.1504588E-03   0.1451092E-03
  0.1735000E+03   0.1445271E-03   0.1530235E-03   0.1477747E-03
  0.1745000E+03   0.1474324E-03   0.1555890E-03   0.1504464E-03
  0.1755000E+03   0.1503477E-03   0.1581542E-03   0.1531233E-03
  0.1765000E+03   0.1532718E-03   0.1607182E-03   0.1558044E-03
  0.1775000E+03   0.1562033E-03   0.1632801E-03   0.1584885E-03
  0.1785000E+03   0.1591410E-03   0.1658389E-03   0.1611745E-03
  0.1795000E+03   0.1620834E-03   0.1683936E-03   0.1638614E-03
  0.1805000E+03   0.1650293E-03   0.1709434E-03   0.1665482E-03
  0.1815000E+03   0.1679774E-03   0.1734873E-03   0.1692336E-03
  0.1825000E+03   0.1709263E-03   0.1760244E-03   0.1719166E-03
  0.1835000E+03   0.1738747E-03   0.1785539E-03   0.1745961E-03
  0.1845000E+03   0.1768212E-03   0.1810747E-03   0.1772711E-03
  0.1855000E+03   0.1797646E-03   0.1835862E-03   0.1799405E-03
  0.1865000E+03   0.1826033E-03   0.1860873E-03   0.1826033E-03
  0.1875000E+03   0.1852583E-03   0.1885772E-03   0.1852583E-03
  0.1885000E+03   0.1879045E-03   0.1910552E-03   0.1879045E-03
  0.1895000E+03   0.1905410E-03   0.1935203E-03   0.1905410E-03
  0.1905000E+03   0.1931666E-03   0.1959718E-03   0.1931666E-03
  0.1915000E+03   0.1957803E-03   0.1984088E-03   0.1957803E-03
  0.1925000E+03   0.1983813E-03   0.2008306E-03   0.1983813E-03
  0.1935000E+03   0.2009684E-03   0.2032364E-03   0.2009684E-03
  0.1945000E+03   0.2035407E-03   0.2058972E-03   0.2035407E-03
  0.1955000E+03   0.2060972E-03   0.2087378E-03   0.2060972E-03
  0.1965000E+03   0.2086371E-03   0.2115613E-03   0.2086371E-03
  0.1975000E+03   0.2111593E-03   0.2143665E-03   0.2111593E-03
  0.1985000E+03   0.2136631E-03   0.2171523E-03   0.2136631E-03
  0.1995000E+03   0.2161474E-03   0.2199175E-03   0.2161474E-03
  0.2005000E+03   0.2186114E-03   0.2226610E-03   0.2186114E-03
  0.2015000E+03   0.2210543E-03   0.2253817E-03   0.2210543E-03
  0.2025000E+03   0.2234753E-03   0.2280785E-03   0.2234753E-03
  0.2035000E+03   0.2258734E-03   0.2307504E-03   0.2258734E-03
  0.2045000E+03   0.2282481E-03   0.2333964E-03   0.2282481E-03
  0.2055000E+03   0.2305951E-03   0.2360155E-03   0.2305983E-03
  0.2065000E+03   0.2327291E-03   0.2386066E-03   0.2329235E-03
  0.2075000E+03   0.2348378E-03   0.2411689E-03   0.2352229E-03
  0.2085000E+03   0.2369208E-03   0.2437015E-03   0.2374958E-03
  0.2095000E+03   0.2389775E-03   0.2462033E-03   0.2397415E-03
  0.2105000E+03   0.2410074E-03   0.2486737E-03   0.2419593E-03
  0.2115000E+03   0.2430100E-03   0.2511117E-03   0.2441486E-03
  0.2125000E+03   0.2449848E-03   0.2535166E-03   0.2463089E-03
  0.2135000E+03   0.2469315E-03   0.2558875E-03   0.2484394E-03
  0.2145000E+03   0.2488495E-03   0.2582238E-03   0.2505397E-03
  0.2155000E+03   0.2507385E-03   0.2605247E-03   0.2526092E-03
  0.2165000E+03   0.2525980E-03   0.2627895E-03   0.2546474E-03
  0.2175000E+03   0.2544277E-03   0.2650176E-03   0.2566538E-03
  0.2185000E+03   0.2562273E-03   0.2672083E-03   0.2586279E-03
  0.2195000E+03   0.2579963E-03   0.2693611E-03   0.2605693E-03
  0.2205000E+03   0.2597345E-03   0.2714754E-03   0.2624775E-03
  0.2215000E+03   0.2614415E-03   0.2735507E-03   0.2643521E-03
  0.2225000E+03   0.2631171E-03   0.2755864E-03   0.2661929E-03
  0.2235000E+03   0.2647609E-03   0.2775821E-03   0.2679993E-03
  0.2245000E+03   0.2663728E-03   0.2795373E-03   0.2697712E-03
  0.2255000E+03   0.2679526E-03   0.2814517E-03   0.2715081E-03
  0.2265000E+03   0.2694998E-03   0.2833249E-03   0.2732098E-03
  0.2275000E+03   0.2710145E-03   0.2851564E-03   0.2748761E-03
  0.2285000E+03   0.2724964E-03   0.2869461E-03   0.2765067E-03
  0.2295000E+03   0.2739453E-03   0.2886935E-03   0.2781013E-03
  0.2305000E+03   0.2753611E-03   0.2903985E-03   0.2796599E-03
  0.2315000E+03   0.2767436E-03   0.2920608E-03   0.2811821E-03
  0.2325000E+03   0.2780928E-03   0.2936802E-03   0.2826680E-03
  0.2335000E+03   0.2794085E-03   0.2952566E-03   0.2841172E-03
  0.2345000E+03   0.2806907E-03   0.2967897E-03   0.2855298E-03
  0.2355000E+03   0.2819393E-03   0.2982795E-03   0.2869057E-03
  0.2365000E+03   0.2831543E-03   0.2997258E-03   0.2882447E-03
  0.2375000E+03   0.2843356E-03   0.3011287E-03   0.2895468E-03
  0.2385000E+03   0.2854831E-03   0.3024880E-03   0.2908121E-03
  0.2395000E+03   0.2865970E-03   0.3038038E-03   0.2920404E-03
  0.2405000E+03   0.2876772E-03   0.3050760E-03   0.2932318E-03
  0.2415000E+03   0.2887238E-03   0.3063048E-03   0.2943864E-03
  0.2425000E+03   0.2897368E-03   0.3074901E-03   0.2955041E-03
  0.2435000E+03   0.2907162E-03   0.3086321E-03   0.2965850E-03
  0.2445000E+03   0.2916622E-03   0.3097308E-03   0.2976293E-03
  0.2455000E+03   0.2925748E-03   0.3107863E-03   0.2986369E-03
  0.2465000E+03   0.2934541E-03   0.3117990E-03   0.2996081E-03
  0.2475000E+03   0.2943003E-03   0.3127688E-03   0.3005429E-03
  0.2485000E+03   0.2951135E-03   0.3136960E-03   0.3014416E-03
  0.2495000E+03   0.2958938E-03   0.3145809E-03   0.3023041E-03
  0.2505000E+03   0.2966414E-03   0.3154236E-03   0.3031308E-03
  0.2515000E+03   0.2973564E-03   0.3162243E-03   0.3039218E-03
  0.2525000E+03   0.2980391E-03   0.3169835E-03   0.3046773E-03
  0.2535000E+03   0.2986896E-03   0.3177013E-03   0.3053975E-03
  0.2545000E+03   0.2993081E-03   0.3183780E-03   0.3060826E-03
  0.2555000E+03   0.2998949E-03   0.3190141E-03   0.3067329E-03
  0.2565000E+03   0.3004501E-03   0.3196097E-03   0.3073487E-03
  0.2575000E+03   0.3009741E-03   0.3201653E-03   0.3079301E-03
  0.2585000E+03   0.3014670E-03   0.3206813E-03   0.3084775E-03
  0.2595000E+03   0.3019291E-03   0.3211579E-03   0.3089912E-03
  0.2605000E+03   0.3023607E-03   0.3215957E-03   0.3094713E-03
  0.2615000E+03   0.3027620E-03   0.3219949E-03   0.3099183E-03
  0.2625000E+03   0.3031333E-03   0.3223561E-03   0.3103325E-03
  0.2635000E+03   0.3034750E-03   0.3226796E-03   0.3107141E-03
  0.2645000E+03   0.3037873E-03   0.3229660E-03   0.3110635E-03
  0.2655000E+03   0.3040705E-03   0.3232155E-03   0.3113810E-03
  0.2665000E+03   0.3043250E-03   0.3234288E-03   0.3116669E-03
  0.2675000E+03   0.3045510E-03   0.3236062E-03   0.3119217E-03
  0.2685000E+03   0.3047488E-03   0.3237482E-03   0.3121457E-03
  0.2695000E+03   0.3049189E-03   0.3238553E-03   0.3123392E-03
  0.2705000E+03   0.3050615E-03   0.3239281E-03   0.3125025E-03
  0.2715000E+03   0.3051771E-03   0.3239670E-03   0.3126362E-03
  0.2725000E+03   0.3052658E-03   0.3239724E-03   0.3127405E-03
  0.2735000E+03   0.3053282E-03   0.3239450E-03   0.3128158E-03
  0.2745000E+03   0.3053644E-03   0.3238852E-03   0.3128625E-03
  0.2755000E+03   0.3053750E-03   0.3237935E-03   0.3128810E-03
  0.2765000E+03   0.3053602E-03   0.3236705E-03   0.3128718E-03
  0.2775000E+03   0.3053205E-03   0.3235167E-03   0.3128351E-03
  0.2785000E+03   0.3052562E-03   0.3233326E-03   0.3127715E-03
  0.2795000E+03   0.3051676E-03   0.3231188E-03   0.3126812E-03
  0.2805000E+03   0.3050552E-03   0.3228757E-03   0.3125648E-03
  0.2815000E+03   0.3049193E-03   0.3226040E-03   0.3124226E-03
  0.2825000E+03   0.3047603E-03   0.3223041E-03   0.3122550E-03
  0.2835000E+03   0.3045785E-03   0.3219765E-03   0.3120624E-03
  0.2845000E+03   0.3043744E-03   0.3216219E-03   0.3118453E-03
  0.2855000E+03   0.3041484E-03   0.3212407E-03   0.3116041E-03
  0.2865000E+03   0.3039007E-03   0.3208336E-03   0.3113391E-03
  0.2875000E+03   0.3036319E-03   0.3204009E-03   0.3110509E-03
  0.2885000E+03   0.3033422E-03   0.3199434E-03   0.3107397E-03
  0.2895000E+03   0.3030320E-03   0.3194614E-03   0.3104061E-03
  0.2905000E+03   0.3027019E-03   0.3189555E-03   0.3100504E-03
  0.2915000E+03   0.3023520E-03   0.3184263E-03   0.3096731E-03
  0.2925000E+03   0.3019828E-03   0.3178743E-03   0.3092746E-03
  0.2935000E+03   0.3015947E-03   0.3173000E-03   0.3088552E-03
  0.2945000E+03   0.3011880E-03   0.3167039E-03   0.3084154E-03
  0.2955000E+03   0.3007632E-03   0.3160865E-03   0.3079556E-03
  0.2965000E+03   0.3003205E-03   0.3154484E-03   0.3074763E-03
  0.2975000E+03   0.2998604E-03   0.3147901E-03   0.3069777E-03
  0.2985000E+03   0.2993833E-03   0.3141121E-03   0.3064604E-03
  0.2995000E+03   0.2988894E-03   0.3134149E-03   0.3059247E-03
  0.3005000E+03   0.2983792E-03   0.3126989E-03   0.3053710E-03
  0.3015000E+03   0.2978531E-03   0.3119648E-03   0.3047998E-03
  0.3025000E+03   0.2973113E-03   0.3112129E-03   0.3042114E-03
  0.3035000E+03   0.2967542E-03   0.3104437E-03   0.3036061E-03
  0.3045000E+03   0.2961823E-03   0.3096578E-03   0.3029845E-03
  0.3055000E+03   0.2955958E-03   0.3088556E-03   0.3023469E-03
  0.3065000E+03   0.2949951E-03   0.3080376E-03   0.3016937E-03
  0.3075000E+03   0.2943805E-03   0.3072043E-03   0.3010252E-03
  0.3085000E+03   0.2937524E-03   0.3063561E-03   0.3003418E-03
  0.3095000E+03   0.2931112E-03   0.3054934E-03   0.2996440E-03
  0.3105000E+03   0.2924570E-03   0.3046167E-03   0.2989320E-03
