             #w        R(w)_min        R(w)_max        R(w)_avg
  0.5000000E+00   0.1520535E-06   0.1492443E-02   0.2250763E-03
  0.1500000E+01   0.2229989E-06   0.1164028E-02   0.1934000E-03
  0.2500000E+01   0.3059593E-06   0.9192891E-03   0.1676328E-03
  0.3500000E+01   0.3970439E-06   0.7347763E-03   0.1465194E-03
  0.4500000E+01   0.4919676E-06   0.5941173E-03   0.1291007E-03
  0.5500000E+01   0.5868059E-06   0.4857482E-03   0.1146379E-03
  0.6500000E+01   0.6784959E-06   0.4014097E-03   0.1025574E-03
  0.7500000E+01   0.7650482E-06   0.3351394E-03   0.9241106E-04
  0.8500000E+01   0.8455273E-06   0.2825885E-03   0.8384596E-04
  0.9500000E+01   0.9198895E-06   0.2405537E-03   0.7658239E-04
  0.1050000E+02   0.9887610E-06   0.2066531E-03   0.7039732E-04
  0.1150000E+02   0.1053218E-05   0.1790993E-03   0.6511176E-04
  0.1250000E+02   0.1114600E-05   0.1565394E-03   0.6058129E-04
  0.1350000E+02   0.1174371E-05   0.1379408E-03   0.5668871E-04
  0.1450000E+02   0.1234025E-05   0.1225090E-03   0.5333846E-04
  0.1550000E+02   0.1295033E-05   0.1096280E-03   0.5045225E-04
  0.1650000E+02   0.1358816E-05   0.9881650E-04   0.4796562E-04
  0.1750000E+02   0.1426743E-05   0.8969617E-04   0.4582535E-04
  0.1850000E+02   0.1500134E-05   0.8196733E-04   0.4398730E-04
  0.1950000E+02   0.1580282E-05   0.7539113E-04   0.4241475E-04
  0.2050000E+02   0.1668471E-05   0.6977613E-04   0.4107712E-04
  0.2150000E+02   0.1765996E-05   0.6496790E-04   0.3994884E-04
  0.2250000E+02   0.1874189E-05   0.6084126E-04   0.3900857E-04
  0.2350000E+02   0.1994436E-05   0.5729420E-04   0.3823845E-04
  0.2450000E+02   0.2128198E-05   0.5424319E-04   0.3762357E-04
  0.2550000E+02   0.2277034E-05   0.5161958E-04   0.3715152E-04
  0.2650000E+02   0.2442614E-05   0.4936666E-04   0.3681202E-04
  0.2750000E+02   0.2626739E-05   0.4743749E-04   0.3659660E-04
  0.2850000E+02   0.2831360E-05   0.4579307E-04   0.3649838E-04
  0.2950000E+02   0.3058590E-05   0.4440095E-04   0.3651183E-04
  0.3050000E+02   0.3310724E-05   0.4323406E-04   0.3663263E-04
  0.3150000E+02   0.3590253E-05   0.4226983E-04   0.3685755E-04
  0.3250000E+02   0.3899883E-05   0.4148945E-04   0.3718428E-04
  0.3350000E+02   0.4242547E-05   0.4087727E-04   0.3761139E-04
  0.3450000E+02   0.4621430E-05   0.4042030E-04   0.3813823E-04
  0.3550000E+02   0.5039979E-05   0.4010786E-04   0.3876490E-04
  0.3650000E+02   0.5501925E-05   0.3993121E-04   0.3949213E-04
  0.3750000E+02   0.6011303E-05   0.4032134E-04   0.4032134E-04
  0.3850000E+02   0.6572471E-05   0.4125454E-04   0.4125454E-04
  0.3950000E+02   0.7190133E-05   0.4229431E-04   0.4229431E-04
  0.4050000E+02   0.7869358E-05   0.4344385E-04   0.4344385E-04
  0.4150000E+02   0.8615607E-05   0.4470687E-04   0.4470687E-04
  0.4250000E+02   0.9434760E-05   0.4608769E-04   0.4608769E-04
  0.4350000E+02   0.1033314E-04   0.4759115E-04   0.4759115E-04
  0.4450000E+02   0.1131753E-04   0.4922269E-04   0.4922269E-04
  0.4550000E+02   0.1239523E-04   0.5098829E-04   0.5098829E-04
  0.4650000E+02   0.1357407E-04   0.5289454E-04   0.5289454E-04
  0.4750000E+02   0.1486245E-04   0.5494862E-04   0.5494862E-04
  0.4850000E+02   0.1626936E-04   0.5715832E-04   0.5715832E-04
  0.4950000E+02   0.1780445E-04   0.5953207E-04   0.5953207E-04
  0.5050000E+02   0.1947803E-04   0.6207895E-04   0.6207895E-04
  0.5150000E+02   0.2130116E-04   0.6480874E-04   0.6480874E-04
  0.5250000E+02   0.2328566E-04   0.6773192E-04   0.6773192E-04
  0.5350000E+02   0.2544414E-04   0.7085970E-04   0.7085970E-04
  0.5450000E+02   0.2779012E-04   0.7420407E-04   0.7420407E-04
  0.5550000E+02   0.3033800E-04   0.7777782E-04   0.7777782E-04
  0.5650000E+02   0.3310316E-04   0.8159457E-04   0.8159457E-04
  0.5750000E+02   0.3610201E-04   0.8566882E-04   0.8566882E-04
  0.5850000E+02   0.3935204E-04   0.9001598E-04   0.9001598E-04
  0.5950000E+02   0.4287189E-04   0.9465242E-04   0.9465242E-04
  0.6050000E+02   0.4668139E-04   0.9959549E-04   0.9959549E-04
  0.6150000E+02   0.5080165E-04   0.1048636E-03   0.1048636E-03
  0.6250000E+02   0.5525511E-04   0.1104762E-03   0.1104762E-03
  0.6350000E+02   0.6006561E-04   0.1164538E-03   0.1164538E-03
  0.6450000E+02   0.6525846E-04   0.1228184E-03   0.1228184E-03
  0.6550000E+02   0.7086052E-04   0.1295928E-03   0.1295928E-03
  0.6650000E+02   0.7690022E-04   0.1368012E-03   0.1368012E-03
  0.6750000E+02   0.8340772E-04   0.1444694E-03   0.1444694E-03
  0.6850000E+02   0.9041490E-04   0.1526243E-03   0.1526243E-03
  0.6950000E+02   0.9795546E-04   0.1612941E-03   0.1612941E-03
  0.7050000E+02   0.1060650E-03   0.1705088E-03   0.1705088E-03
  0.7150000E+02   0.1147811E-03   0.1802997E-03   0.1802997E-03
  0.7250000E+02   0.1241433E-03   0.1906998E-03   0.1906998E-03
  0.7350000E+02   0.1341933E-03   0.2017436E-03   0.2017436E-03
  0.7450000E+02   0.1449750E-03   0.2134674E-03   0.2134674E-03
  0.7550000E+02   0.1565345E-03   0.2259092E-03   0.2259092E-03
  0.7650000E+02   0.1688866E-03   0.2391087E-03   0.2391087E-03
  0.7750000E+02   0.1787100E-03   0.2531076E-03   0.2531076E-03
  0.7850000E+02   0.1891653E-03   0.2679493E-03   0.2679493E-03
  0.7950000E+02   0.2002898E-03   0.2836793E-03   0.2836793E-03
  0.8050000E+02   0.2121227E-03   0.3003448E-03   0.3003448E-03
  0.8150000E+02   0.2247051E-03   0.3179954E-03   0.3179954E-03
  0.8250000E+02   0.2380804E-03   0.3366825E-03   0.3366825E-03
  0.8350000E+02   0.2522938E-03   0.3564596E-03   0.3564596E-03
  0.8450000E+02   0.2673928E-03   0.3773824E-03   0.3773824E-03
  0.8550000E+02   0.2834273E-03   0.3995088E-03   0.3995088E-03
  0.8650000E+02   0.3004492E-03   0.4228988E-03   0.4228988E-03
  0.8750000E+02   0.3185129E-03   0.4476147E-03   0.4476147E-03
  0.8850000E+02   0.3376753E-03   0.4737210E-03   0.4737210E-03
  0.8950000E+02   0.3579956E-03   0.5012845E-03   0.5012845E-03
  0.9050000E+02   0.3795355E-03   0.5303743E-03   0.5303743E-03
  0.9150000E+02   0.4023594E-03   0.5610616E-03   0.5610616E-03
  0.9250000E+02   0.4265343E-03   0.5934202E-03   0.5934202E-03
  0.9350000E+02   0.4521295E-03   0.6275259E-03   0.6275259E-03
  0.9450000E+02   0.4792175E-03   0.6634568E-03   0.6634568E-03
  0.9550000E+02   0.5078730E-03   0.7012935E-03   0.7012935E-03
  0.9650000E+02   0.5381738E-03   0.7411185E-03   0.7411185E-03
  0.9750000E+02   0.5702002E-03   0.7830167E-03   0.7830167E-03
  0.9850000E+02   0.6040353E-03   0.8270752E-03   0.8270752E-03
  0.9950000E+02   0.6397650E-03   0.8733832E-03   0.8733832E-03
  0.1005000E+03   0.6774779E-03   0.9220318E-03   0.9220318E-03
  0.1015000E+03   0.7172653E-03   0.9731143E-03   0.9731143E-03
  0.1025000E+03   0.7592213E-03   0.1026726E-02   0.1026726E-02
  0.1035000E+03   0.8034426E-03   0.1082964E-02   0.1082964E-02
  0.1045000E+03   0.8500287E-03   0.1141927E-02   0.1141927E-02
  0.1055000E+03   0.8990814E-03   0.1203715E-02   0.1203715E-02
  0.1065000E+03   0.9507055E-03   0.1268431E-02   0.1268431E-02
  0.1075000E+03   0.1005008E-02   0.1343188E-02   0.1336179E-02
  0.1085000E+03   0.1062098E-02   0.1422483E-02   0.1407063E-02
  0.1095000E+03   0.1122087E-02   0.1505549E-02   0.1481190E-02
  0.1105000E+03   0.1185090E-02   0.1592503E-02   0.1558666E-02
  0.1115000E+03   0.1251222E-02   0.1683461E-02   0.1639602E-02
  0.1125000E+03   0.1320601E-02   0.1778540E-02   0.1724104E-02
  0.1135000E+03   0.1393348E-02   0.1877857E-02   0.1812284E-02
  0.1145000E+03   0.1469584E-02   0.1981527E-02   0.1904252E-02
  0.1155000E+03   0.1549432E-02   0.2089664E-02   0.2000117E-02
  0.1165000E+03   0.1633016E-02   0.2202383E-02   0.2099991E-02
  0.1175000E+03   0.1720463E-02   0.2319794E-02   0.2203985E-02
  0.1185000E+03   0.1811899E-02   0.2442008E-02   0.2312209E-02
  0.1195000E+03   0.1907452E-02   0.2569132E-02   0.2424772E-02
  0.1205000E+03   0.2007250E-02   0.2701272E-02   0.2541784E-02
  0.1215000E+03   0.2111422E-02   0.2838533E-02   0.2663353E-02
  0.1225000E+03   0.2220097E-02   0.2981013E-02   0.2789587E-02
  0.1235000E+03   0.2333403E-02   0.3128810E-02   0.2920590E-02
  0.1245000E+03   0.2451469E-02   0.3282019E-02   0.3056468E-02
  0.1255000E+03   0.2574423E-02   0.3440731E-02   0.3197322E-02
  0.1265000E+03   0.2702391E-02   0.3605031E-02   0.3343252E-02
  0.1275000E+03   0.2835501E-02   0.3775003E-02   0.3494358E-02
  0.1285000E+03   0.2973875E-02   0.3950726E-02   0.3650734E-02
  0.1295000E+03   0.3117637E-02   0.4132274E-02   0.3812472E-02
  0.1305000E+03   0.3266909E-02   0.4319716E-02   0.3979663E-02
  0.1315000E+03   0.3421807E-02   0.4513117E-02   0.4152392E-02
  0.1325000E+03   0.3582449E-02   0.4712535E-02   0.4330742E-02
  0.1335000E+03   0.3748948E-02   0.4918026E-02   0.4514792E-02
  0.1345000E+03   0.3921412E-02   0.5129638E-02   0.4704617E-02
  0.1355000E+03   0.4099949E-02   0.5347413E-02   0.4900288E-02
  0.1365000E+03   0.4284661E-02   0.5571388E-02   0.5101870E-02
  0.1375000E+03   0.4475647E-02   0.5801595E-02   0.5309425E-02
  0.1385000E+03   0.4672999E-02   0.6038057E-02   0.5523009E-02
  0.1395000E+03   0.4876808E-02   0.6280793E-02   0.5742674E-02
  0.1405000E+03   0.5087157E-02   0.6529815E-02   0.5968465E-02
  0.1415000E+03   0.5304125E-02   0.6785126E-02   0.6200421E-02
  0.1425000E+03   0.5527786E-02   0.7046726E-02   0.6438579E-02
  0.1435000E+03   0.5758205E-02   0.7314606E-02   0.6682965E-02
  0.1445000E+03   0.5995443E-02   0.7588750E-02   0.6933602E-02
  0.1455000E+03   0.6239556E-02   0.7869135E-02   0.7190507E-02
  0.1465000E+03   0.6490591E-02   0.8155731E-02   0.7453687E-02
  0.1475000E+03   0.6748587E-02   0.8448501E-02   0.7723146E-02
  0.1485000E+03   0.7013578E-02   0.8747401E-02   0.7998880E-02
  0.1495000E+03   0.7285590E-02   0.9052380E-02   0.8280877E-02
  0.1505000E+03   0.7564640E-02   0.9363378E-02   0.8569120E-02
  0.1515000E+03   0.7850738E-02   0.9680329E-02   0.8863583E-02
  0.1525000E+03   0.8143887E-02   0.1000316E-01   0.9164234E-02
  0.1535000E+03   0.8444080E-02   0.1033179E-01   0.9471033E-02
  0.1545000E+03   0.8751301E-02   0.1066613E-01   0.9783933E-02
  0.1555000E+03   0.9065528E-02   0.1100609E-01   0.1010288E-01
  0.1565000E+03   0.9386728E-02   0.1135157E-01   0.1042781E-01
  0.1575000E+03   0.9714859E-02   0.1170245E-01   0.1075866E-01
  0.1585000E+03   0.1004987E-01   0.1205862E-01   0.1109534E-01
  0.1595000E+03   0.1039171E-01   0.1241995E-01   0.1143778E-01
  0.1605000E+03   0.1074030E-01   0.1278633E-01   0.1178588E-01
  0.1615000E+03   0.1109557E-01   0.1315761E-01   0.1213955E-01
  0.1625000E+03   0.1145743E-01   0.1353364E-01   0.1249867E-01
  0.1635000E+03   0.1182578E-01   0.1391429E-01   0.1286314E-01
  0.1645000E+03   0.1220053E-01   0.1429940E-01   0.1323283E-01
  0.1655000E+03   0.1258155E-01   0.1468880E-01   0.1360762E-01
  0.1665000E+03   0.1296873E-01   0.1508234E-01   0.1398737E-01
  0.1675000E+03   0.1336194E-01   0.1547983E-01   0.1437194E-01
  0.1685000E+03   0.1376103E-01   0.1588111E-01   0.1476119E-01
  0.1695000E+03   0.1416585E-01   0.1628598E-01   0.1515495E-01
  0.1705000E+03   0.1457626E-01   0.1669427E-01   0.1555307E-01
  0.1715000E+03   0.1499208E-01   0.1710578E-01   0.1595539E-01
  0.1725000E+03   0.1541314E-01   0.1752032E-01   0.1636173E-01
  0.1735000E+03   0.1583926E-01   0.1793769E-01   0.1677191E-01
  0.1745000E+03   0.1627025E-01   0.1835768E-01   0.1718575E-01
  0.1755000E+03   0.1670592E-01   0.1878008E-01   0.1760305E-01
  0.1765000E+03   0.1714605E-01   0.1920469E-01   0.1802364E-01
  0.1775000E+03   0.1759045E-01   0.1963129E-01   0.1844730E-01
  0.1785000E+03   0.1803889E-01   0.2005967E-01   0.1887384E-01
  0.1795000E+03   0.1849114E-01   0.2048960E-01   0.1930304E-01
  0.1805000E+03   0.1894699E-01   0.2092087E-01   0.1973471E-01
  0.1815000E+03   0.1940619E-01   0.2135325E-01   0.2016861E-01
  0.1825000E+03   0.1986851E-01   0.2178652E-01   0.2060454E-01
  0.1835000E+03   0.2033369E-01   0.2222045E-01   0.2104227E-01
  0.1845000E+03   0.2080149E-01   0.2265481E-01   0.2148158E-01
  0.1855000E+03   0.2127165E-01   0.2308938E-01   0.2192224E-01
  0.1865000E+03   0.2174392E-01   0.2352393E-01   0.2236402E-01
  0.1875000E+03   0.2221803E-01   0.2395823E-01   0.2280670E-01
  0.1885000E+03   0.2269371E-01   0.2439205E-01   0.2325004E-01
  0.1895000E+03   0.2317070E-01   0.2482517E-01   0.2369380E-01
  0.1905000E+03   0.2364872E-01   0.2525735E-01   0.2413776E-01
  0.1915000E+03   0.2412751E-01   0.2568837E-01   0.2458167E-01
  0.1925000E+03   0.2460678E-01   0.2611801E-01   0.2502530E-01
  0.1935000E+03   0.2508627E-01   0.2654604E-01   0.2546842E-01
  0.1945000E+03   0.2556568E-01   0.2697224E-01   0.2591079E-01
  0.1955000E+03   0.2604476E-01   0.2739639E-01   0.2635217E-01
  0.1965000E+03   0.2652321E-01   0.2781827E-01   0.2679233E-01
  0.1975000E+03   0.2700077E-01   0.2823767E-01   0.2723104E-01
  0.1985000E+03   0.2747715E-01   0.2865438E-01   0.2766806E-01
  0.1995000E+03   0.2795208E-01   0.2906817E-01   0.2810317E-01
  0.2005000E+03   0.2842528E-01   0.2947886E-01   0.2853613E-01
  0.2015000E+03   0.2889648E-01   0.2988623E-01   0.2896672E-01
  0.2025000E+03   0.2936541E-01   0.3029009E-01   0.2939472E-01
  0.2035000E+03   0.2981991E-01   0.3069024E-01   0.2981991E-01
  0.2045000E+03   0.3024206E-01   0.3108649E-01   0.3024206E-01
  0.2055000E+03   0.3066096E-01   0.3147866E-01   0.3066096E-01
  0.2065000E+03   0.3107640E-01   0.3186655E-01   0.3107640E-01
  0.2075000E+03   0.3148817E-01   0.3224999E-01   0.3148817E-01
  0.2085000E+03   0.3189607E-01   0.3262880E-01   0.3189607E-01
  0.2095000E+03   0.3229990E-01   0.3300283E-01   0.3229990E-01
  0.2105000E+03   0.3269946E-01   0.3337189E-01   0.3269946E-01
  0.2115000E+03   0.3309455E-01   0.3373584E-01   0.3309455E-01
  0.2125000E+03   0.3348500E-01   0.3409452E-01   0.3348500E-01
  0.2135000E+03   0.3387062E-01   0.3444778E-01   0.3387062E-01
  0.2145000E+03   0.3425123E-01   0.3479547E-01   0.3425123E-01
  0.2155000E+03   0.3462666E-01   0.3513759E-01   0.3462666E-01
  0.2165000E+03   0.3499674E-01   0.3554824E-01   0.3499674E-01
  0.2175000E+03   0.3536132E-01   0.3595303E-01   0.3536132E-01
  0.2185000E+03   0.3572022E-01   0.3635175E-01   0.3572022E-01
  0.2195000E+03   0.3607331E-01   0.3674421E-01   0.3607331E-01
  0.2205000E+03   0.3642043E-01   0.3713023E-01   0.3642043E-01
  0.2215000E+03   0.3676145E-01   0.3750963E-01   0.3676145E-01
  0.2225000E+03   0.3709623E-01   0.3788224E-01   0.3709623E-01
  0.2235000E+03   0.3742465E-01   0.3824790E-01   0.3742465E-01
  0.2245000E+03   0.3774657E-01   0.3860645E-01   0.3774657E-01
  0.2255000E+03   0.3806189E-01   0.3895774E-01   0.3806189E-01
  0.2265000E+03   0.3837050E-01   0.3930163E-01   0.3837050E-01
  0.2275000E+03   0.3867228E-01   0.3963799E-01   0.3867228E-01
  0.2285000E+03   0.3896714E-01   0.3996669E-01   0.3896714E-01
  0.2295000E+03   0.3925498E-01   0.4028760E-01   0.3925498E-01
  0.2305000E+03   0.3950615E-01   0.4060063E-01   0.3953573E-01
  0.2315000E+03   0.3974268E-01   0.4090565E-01   0.3980929E-01
  0.2325000E+03   0.3997201E-01   0.4120258E-01   0.4007560E-01
  0.2335000E+03   0.4019413E-01   0.4149132E-01   0.4033459E-01
  0.2345000E+03   0.4040897E-01   0.4177179E-01   0.4058618E-01
  0.2355000E+03   0.4061654E-01   0.4204392E-01   0.4083033E-01
  0.2365000E+03   0.4081679E-01   0.4230763E-01   0.4106699E-01
  0.2375000E+03   0.4100972E-01   0.4256287E-01   0.4129610E-01
  0.2385000E+03   0.4119531E-01   0.4280958E-01   0.4151762E-01
  0.2395000E+03   0.4137356E-01   0.4304772E-01   0.4173153E-01
  0.2405000E+03   0.4154446E-01   0.4327724E-01   0.4193780E-01
  0.2415000E+03   0.4170803E-01   0.4349811E-01   0.4213640E-01
  0.2425000E+03   0.4186426E-01   0.4371031E-01   0.4232731E-01
  0.2435000E+03   0.4201316E-01   0.4391382E-01   0.4251052E-01
  0.2445000E+03   0.4215476E-01   0.4410862E-01   0.4268602E-01
  0.2455000E+03   0.4228908E-01   0.4429471E-01   0.4285382E-01
  0.2465000E+03   0.4241614E-01   0.4447209E-01   0.4301391E-01
  0.2475000E+03   0.4253597E-01   0.4464076E-01   0.4316630E-01
  0.2485000E+03   0.4264860E-01   0.4480073E-01   0.4331101E-01
  0.2495000E+03   0.4275407E-01   0.4495203E-01   0.4344805E-01
  0.2505000E+03   0.4285242E-01   0.4509468E-01   0.4357745E-01
  0.2515000E+03   0.4294369E-01   0.4522870E-01   0.4369922E-01
  0.2525000E+03   0.4302793E-01   0.4535414E-01   0.4381341E-01
  0.2535000E+03   0.4310520E-01   0.4547102E-01   0.4392004E-01
  0.2545000E+03   0.4317555E-01   0.4557941E-01   0.4401916E-01
  0.2555000E+03   0.4323902E-01   0.4567934E-01   0.4411081E-01
  0.2565000E+03   0.4329569E-01   0.4577088E-01   0.4419504E-01
  0.2575000E+03   0.4334562E-01   0.4585407E-01   0.4427190E-01
  0.2585000E+03   0.4338887E-01   0.4592900E-01   0.4434143E-01
  0.2595000E+03   0.4342552E-01   0.4599572E-01   0.4440371E-01
  0.2605000E+03   0.4345562E-01   0.4605431E-01   0.4445878E-01
  0.2615000E+03   0.4347926E-01   0.4610485E-01   0.4450673E-01
  0.2625000E+03   0.4349650E-01   0.4614741E-01   0.4454760E-01
  0.2635000E+03   0.4350744E-01   0.4618208E-01   0.4458148E-01
  0.2645000E+03   0.4351214E-01   0.4620895E-01   0.4460844E-01
  0.2655000E+03   0.4351069E-01   0.4622812E-01   0.4462855E-01
  0.2665000E+03   0.4350317E-01   0.4623966E-01   0.4464189E-01
  0.2675000E+03   0.4348967E-01   0.4624369E-01   0.4464854E-01
  0.2685000E+03   0.4347027E-01   0.4624030E-01   0.4464859E-01
  0.2695000E+03   0.4344506E-01   0.4622959E-01   0.4464213E-01
  0.2705000E+03   0.4341413E-01   0.4621167E-01   0.4462923E-01
  0.2715000E+03   0.4337757E-01   0.4618665E-01   0.4460999E-01
  0.2725000E+03   0.4333547E-01   0.4615464E-01   0.4458451E-01
  0.2735000E+03   0.4328792E-01   0.4611574E-01   0.4455287E-01
  0.2745000E+03   0.4323503E-01   0.4607008E-01   0.4451516E-01
  0.2755000E+03   0.4317687E-01   0.4601776E-01   0.4447150E-01
  0.2765000E+03   0.4311355E-01   0.4595891E-01   0.4442196E-01
  0.2775000E+03   0.4304516E-01   0.4589364E-01   0.4436666E-01
  0.2785000E+03   0.4297180E-01   0.4582208E-01   0.4430569E-01
  0.2795000E+03   0.4289357E-01   0.4574433E-01   0.4423916E-01
  0.2805000E+03   0.4281055E-01   0.4566054E-01   0.4416716E-01
  0.2815000E+03   0.4272286E-01   0.4557081E-01   0.4408979E-01
  0.2825000E+03   0.4263059E-01   0.4547527E-01   0.4400717E-01
  0.2835000E+03   0.4253383E-01   0.4537405E-01   0.4391940E-01
  0.2845000E+03   0.4243268E-01   0.4526728E-01   0.4382657E-01
  0.2855000E+03   0.4232724E-01   0.4515506E-01   0.4372880E-01
  0.2865000E+03   0.4221762E-01   0.4503754E-01   0.4362619E-01
  0.2875000E+03   0.4210390E-01   0.4491484E-01   0.4351885E-01
  0.2885000E+03   0.4198618E-01   0.4478707E-01   0.4340688E-01
  0.2895000E+03   0.4186457E-01   0.4465438E-01   0.4329039E-01
  0.2905000E+03   0.4173915E-01   0.4451688E-01   0.4316949E-01
  0.2915000E+03   0.4161003E-01   0.4437469E-01   0.4304427E-01
  0.2925000E+03   0.4147730E-01   0.4422796E-01   0.4291485E-01
  0.2935000E+03   0.4134106E-01   0.4407679E-01   0.4278134E-01
  0.2945000E+03   0.4120140E-01   0.4392131E-01   0.4264383E-01
  0.2955000E+03   0.4105842E-01   0.4376164E-01   0.4250243E-01
  0.2965000E+03   0.4091220E-01   0.4359792E-01   0.4235725E-01
  0.2975000E+03   0.4076286E-01   0.4343025E-01   0.4220839E-01
  0.2985000E+03   0.4061046E-01   0.4325877E-01   0.4205595E-01
  0.2995000E+03   0.4045512E-01   0.4308359E-01   0.4190004E-01
  0.3005000E+03   0.4029692E-01   0.4290483E-01   0.4174076E-01
  0.3015000E+03   0.4013594E-01   0.4272260E-01   0.4157821E-01
  0.3025000E+03   0.3997229E-01   0.4253704E-01   0.4141249E-01
  0.3035000E+03   0.3980604E-01   0.4234824E-01   0.4124370E-01
  0.3045000E+03   0.3963729E-01   0.4215634E-01   0.4107194E-01
  0.3055000E+03   0.3946612E-01   0.4196143E-01   0.4089731E-01
  0.3065000E+03   0.3929262E-01   0.4176364E-01   0.4071990E-01
  0.3075000E+03   0.3911687E-01   0.4156308E-01   0.4053982E-01
  0.3085000E+03   0.3893895E-01   0.4135985E-01   0.4035715E-01
  0.3095000E+03   0.3875895E-01   0.4115406E-01   0.4017200E-01
  0.3105000E+03   0.3857696E-01   0.4094582E-01   0.3998444E-01
