             #w        R(w)_min        R(w)_max        R(w)_avg
  0.5000000E+00   0.3249143E-08   0.2935499E-05   0.9738028E-08
  0.1500000E+01   0.2337738E-08   0.2984991E-05   0.1144464E-07
  0.2500000E+01   0.1823287E-08   0.3037713E-05   0.1338364E-07
  0.3500000E+01   0.1525366E-08   0.3093995E-05   0.1558469E-07
  0.4500000E+01   0.1356143E-08   0.3154169E-05   0.1808174E-07
  0.5500000E+01   0.1270785E-08   0.3218571E-05   0.2091370E-07
  0.6500000E+01   0.1245995E-08   0.3287548E-05   0.2412494E-07
  0.7500000E+01   0.1270149E-08   0.3361456E-05   0.2776607E-07
  0.8500000E+01   0.1338562E-08   0.3440661E-05   0.3189465E-07
  0.9500000E+01   0.1451165E-08   0.3525549E-05   0.3657605E-07
  0.1050000E+02   0.1611399E-08   0.3616520E-05   0.4188442E-07
  0.1150000E+02   0.1825769E-08   0.3713994E-05   0.4790375E-07
  0.1250000E+02   0.2103794E-08   0.3818417E-05   0.5472903E-07
  0.1350000E+02   0.2458207E-08   0.3930258E-05   0.6246759E-07
  0.1450000E+02   0.2905349E-08   0.4050013E-05   0.7124055E-07
  0.1550000E+02   0.3465733E-08   0.4178212E-05   0.8118445E-07
  0.1650000E+02   0.4164750E-08   0.4315419E-05   0.9245302E-07
  0.1750000E+02   0.5033533E-08   0.4462232E-05   0.1052192E-06
  0.1850000E+02   0.6109974E-08   0.4619294E-05   0.1196773E-06
  0.1950000E+02   0.7439913E-08   0.4787288E-05   0.1360454E-06
  0.2050000E+02   0.9078511E-08   0.4966947E-05   0.1545680E-06
  0.2150000E+02   0.1109182E-07   0.5159055E-05   0.1755191E-06
  0.2250000E+02   0.1355858E-07   0.5364451E-05   0.1992051E-06
  0.2350000E+02   0.1657224E-07   0.5584034E-05   0.2259685E-06
  0.2450000E+02   0.2024328E-07   0.5818768E-05   0.2561918E-06
  0.2550000E+02   0.2470180E-07   0.6069685E-05   0.2903016E-06
  0.2650000E+02   0.3010043E-07   0.6337891E-05   0.3287730E-06
  0.2750000E+02   0.3661767E-07   0.6624573E-05   0.3721350E-06
  0.2850000E+02   0.4446151E-07   0.6931003E-05   0.4209757E-06
  0.2950000E+02   0.5387359E-07   0.7258543E-05   0.4759481E-06
  0.3050000E+02   0.6513383E-07   0.7608653E-05   0.5377766E-06
  0.3150000E+02   0.7856556E-07   0.7982900E-05   0.6072642E-06
  0.3250000E+02   0.9454125E-07   0.8382961E-05   0.6852995E-06
  0.3350000E+02   0.1134889E-06   0.8810632E-05   0.7728654E-06
  0.3450000E+02   0.1358992E-06   0.9267838E-05   0.8710476E-06
  0.3550000E+02   0.1623333E-06   0.9756642E-05   0.9810440E-06
  0.3650000E+02   0.1934316E-06   0.1027925E-04   0.1104175E-05
  0.3750000E+02   0.2299232E-06   0.1083802E-04   0.1241894E-05
  0.3850000E+02   0.2726367E-06   0.1143549E-04   0.1395801E-05
  0.3950000E+02   0.3225119E-06   0.1207435E-04   0.1567652E-05
  0.4050000E+02   0.3806124E-06   0.1275751E-04   0.1759377E-05
  0.4150000E+02   0.4481399E-06   0.1348804E-04   0.1973088E-05
  0.4250000E+02   0.5264492E-06   0.1426926E-04   0.2211101E-05
  0.4350000E+02   0.6170655E-06   0.1510470E-04   0.2475949E-05
  0.4450000E+02   0.7217020E-06   0.1599811E-04   0.2770400E-05
  0.4550000E+02   0.8422803E-06   0.1695354E-04   0.3097475E-05
  0.4650000E+02   0.9809515E-06   0.1797527E-04   0.3460470E-05
  0.4750000E+02   0.1140119E-05   0.1906789E-04   0.3862974E-05
  0.4850000E+02   0.1322465E-05   0.2023627E-04   0.4308892E-05
  0.4950000E+02   0.1530976E-05   0.2148563E-04   0.4802469E-05
  0.5050000E+02   0.1768970E-05   0.2282151E-04   0.5348314E-05
  0.5150000E+02   0.2040131E-05   0.2424980E-04   0.5951425E-05
  0.5250000E+02   0.2348541E-05   0.2577681E-04   0.6617218E-05
  0.5350000E+02   0.2698711E-05   0.2740920E-04   0.7351554E-05
  0.5450000E+02   0.3095624E-05   0.2915409E-04   0.8160768E-05
  0.5550000E+02   0.3544769E-05   0.3101903E-04   0.9051701E-05
  0.5650000E+02   0.4052185E-05   0.3301203E-04   0.1003173E-04
  0.5750000E+02   0.4624507E-05   0.3514162E-04   0.1110881E-04
  0.5850000E+02   0.5269004E-05   0.3741681E-04   0.1229150E-04
  0.5950000E+02   0.5993636E-05   0.3984718E-04   0.1358900E-04
  0.6050000E+02   0.6807097E-05   0.4244289E-04   0.1501117E-04
  0.6150000E+02   0.7718869E-05   0.4521466E-04   0.1656863E-04
  0.6250000E+02   0.8739277E-05   0.4817388E-04   0.1827273E-04
  0.6350000E+02   0.9879543E-05   0.5133257E-04   0.2013562E-04
  0.6450000E+02   0.1115184E-04   0.5470344E-04   0.2217028E-04
  0.6550000E+02   0.1256936E-04   0.5829992E-04   0.2439059E-04
  0.6650000E+02   0.1414637E-04   0.6213618E-04   0.2681136E-04
  0.6750000E+02   0.1589825E-04   0.6622717E-04   0.2944833E-04
  0.6850000E+02   0.1784160E-04   0.7058865E-04   0.3231830E-04
  0.6950000E+02   0.1999427E-04   0.7523722E-04   0.3543908E-04
  0.7050000E+02   0.2237542E-04   0.8019036E-04   0.3882962E-04
  0.7150000E+02   0.2500560E-04   0.8546645E-04   0.4250999E-04
  0.7250000E+02   0.2790682E-04   0.9108481E-04   0.4650147E-04
  0.7350000E+02   0.3110258E-04   0.9706573E-04   0.5082656E-04
  0.7450000E+02   0.3461796E-04   0.1034305E-03   0.5550904E-04
  0.7550000E+02   0.3847967E-04   0.1102015E-03   0.6057402E-04
  0.7650000E+02   0.4271611E-04   0.1174020E-03   0.6604796E-04
  0.7750000E+02   0.4735742E-04   0.1250567E-03   0.7195873E-04
  0.7850000E+02   0.5243555E-04   0.1331911E-03   0.7833567E-04
  0.7950000E+02   0.5798431E-04   0.1418320E-03   0.8520956E-04
  0.8050000E+02   0.6403939E-04   0.1510074E-03   0.9261272E-04
  0.8150000E+02   0.7063845E-04   0.1607465E-03   0.1005790E-03
  0.8250000E+02   0.7782114E-04   0.1710798E-03   0.1091439E-03
  0.8350000E+02   0.8562912E-04   0.1820390E-03   0.1183445E-03
  0.8450000E+02   0.9410613E-04   0.1936570E-03   0.1282195E-03
  0.8550000E+02   0.1032980E-03   0.2059682E-03   0.1388092E-03
  0.8650000E+02   0.1132526E-03   0.2190084E-03   0.1501557E-03
  0.8750000E+02   0.1240201E-03   0.2328144E-03   0.1623027E-03
  0.8850000E+02   0.1356527E-03   0.2474247E-03   0.1752958E-03
  0.8950000E+02   0.1482046E-03   0.2628791E-03   0.1891820E-03
  0.9050000E+02   0.1617325E-03   0.2792188E-03   0.2040103E-03
  0.9150000E+02   0.1762948E-03   0.2964862E-03   0.2198313E-03
  0.9250000E+02   0.1919524E-03   0.3147254E-03   0.2366973E-03
  0.9350000E+02   0.2087680E-03   0.3339817E-03   0.2546623E-03
  0.9450000E+02   0.2268066E-03   0.3543020E-03   0.2737821E-03
  0.9550000E+02   0.2461350E-03   0.3757344E-03   0.2941139E-03
  0.9650000E+02   0.2668220E-03   0.3983284E-03   0.3157167E-03
  0.9750000E+02   0.2889386E-03   0.4221351E-03   0.3386512E-03
  0.9850000E+02   0.3125572E-03   0.4472067E-03   0.3629794E-03
  0.9950000E+02   0.3377522E-03   0.4735968E-03   0.3887651E-03
  0.1005000E+03   0.3645997E-03   0.5013604E-03   0.4160732E-03
  0.1015000E+03   0.3931774E-03   0.5305537E-03   0.4449702E-03
  0.1025000E+03   0.4235643E-03   0.5612340E-03   0.4755240E-03
  0.1035000E+03   0.4558411E-03   0.5934602E-03   0.5078035E-03
  0.1045000E+03   0.4900895E-03   0.6272918E-03   0.5418790E-03
  0.1055000E+03   0.5263924E-03   0.6627899E-03   0.5778218E-03
  0.1065000E+03   0.5648338E-03   0.7000162E-03   0.6157041E-03
  0.1075000E+03   0.6054984E-03   0.7390338E-03   0.6555992E-03
  0.1085000E+03   0.6484717E-03   0.7799065E-03   0.6975810E-03
  0.1095000E+03   0.6938397E-03   0.8226988E-03   0.7417241E-03
  0.1105000E+03   0.7416890E-03   0.8674762E-03   0.7881037E-03
  0.1115000E+03   0.7921061E-03   0.9143048E-03   0.8367955E-03
  0.1125000E+03   0.8451777E-03   0.9632512E-03   0.8878752E-03
  0.1135000E+03   0.9009904E-03   0.1014383E-02   0.9414191E-03
  0.1145000E+03   0.9596304E-03   0.1067767E-02   0.9975033E-03
  0.1155000E+03   0.1021183E-02   0.1123471E-02   0.1056204E-02
  0.1165000E+03   0.1085734E-02   0.1181564E-02   0.1117596E-02
  0.1175000E+03   0.1153367E-02   0.1242114E-02   0.1181756E-02
  0.1185000E+03   0.1224165E-02   0.1305188E-02   0.1248757E-02
  0.1195000E+03   0.1298209E-02   0.1370855E-02   0.1318675E-02
  0.1205000E+03   0.1375579E-02   0.1439183E-02   0.1391581E-02
  0.1215000E+03   0.1456354E-02   0.1510238E-02   0.1467549E-02
  0.1225000E+03   0.1540610E-02   0.1584087E-02   0.1546649E-02
  0.1235000E+03   0.1628422E-02   0.1660796E-02   0.1628950E-02
  0.1245000E+03   0.1714520E-02   0.1740431E-02   0.1714520E-02
  0.1255000E+03   0.1803425E-02   0.1823055E-02   0.1803425E-02
  0.1265000E+03   0.1895729E-02   0.1913892E-02   0.1895729E-02
  0.1275000E+03   0.1991495E-02   0.2016615E-02   0.1991495E-02
  0.1285000E+03   0.2089491E-02   0.2123224E-02   0.2090782E-02
  0.1295000E+03   0.2184691E-02   0.2233776E-02   0.2193647E-02
  0.1305000E+03   0.2283183E-02   0.2348324E-02   0.2300146E-02
  0.1315000E+03   0.2385021E-02   0.2466918E-02   0.2410331E-02
  0.1325000E+03   0.2490258E-02   0.2589603E-02   0.2524250E-02
  0.1335000E+03   0.2598947E-02   0.2716421E-02   0.2641949E-02
  0.1345000E+03   0.2711136E-02   0.2847410E-02   0.2763472E-02
  0.1355000E+03   0.2826872E-02   0.2982601E-02   0.2888858E-02
  0.1365000E+03   0.2946198E-02   0.3122023E-02   0.3018143E-02
  0.1375000E+03   0.3069155E-02   0.3265700E-02   0.3151358E-02
  0.1385000E+03   0.3195783E-02   0.3413650E-02   0.3288534E-02
  0.1395000E+03   0.3326116E-02   0.3565887E-02   0.3429694E-02
  0.1405000E+03   0.3460186E-02   0.3722421E-02   0.3574858E-02
  0.1415000E+03   0.3598023E-02   0.3883254E-02   0.3724044E-02
  0.1425000E+03   0.3739653E-02   0.4048386E-02   0.3877262E-02
  0.1435000E+03   0.3885096E-02   0.4217809E-02   0.4034523E-02
  0.1445000E+03   0.4034372E-02   0.4391511E-02   0.4195827E-02
  0.1455000E+03   0.4187495E-02   0.4569474E-02   0.4361175E-02
  0.1465000E+03   0.4344476E-02   0.4751676E-02   0.4530561E-02
  0.1475000E+03   0.4505323E-02   0.4938088E-02   0.4703974E-02
  0.1485000E+03   0.4670037E-02   0.5128676E-02   0.4881400E-02
  0.1495000E+03   0.4838619E-02   0.5323401E-02   0.5062818E-02
  0.1505000E+03   0.5011062E-02   0.5522218E-02   0.5248204E-02
  0.1515000E+03   0.5187358E-02   0.5725077E-02   0.5437529E-02
  0.1525000E+03   0.5367492E-02   0.5931921E-02   0.5630758E-02
  0.1535000E+03   0.5551445E-02   0.6142690E-02   0.5827853E-02
  0.1545000E+03   0.5739197E-02   0.6357318E-02   0.6028769E-02
  0.1555000E+03   0.5930718E-02   0.6575733E-02   0.6233459E-02
  0.1565000E+03   0.6125979E-02   0.6797859E-02   0.6441868E-02
  0.1575000E+03   0.6324942E-02   0.7023614E-02   0.6653939E-02
  0.1585000E+03   0.6527567E-02   0.7252910E-02   0.6869609E-02
  0.1595000E+03   0.6733810E-02   0.7485658E-02   0.7088810E-02
  0.1605000E+03   0.6943621E-02   0.7721761E-02   0.7311471E-02
  0.1615000E+03   0.7156946E-02   0.7961117E-02   0.7537515E-02
  0.1625000E+03   0.7373726E-02   0.8203623E-02   0.7766861E-02
  0.1635000E+03   0.7593900E-02   0.8449168E-02   0.7999424E-02
  0.1645000E+03   0.7817398E-02   0.8697640E-02   0.8235114E-02
  0.1655000E+03   0.8044152E-02   0.8948921E-02   0.8473838E-02
  0.1665000E+03   0.8274083E-02   0.9202889E-02   0.8715499E-02
  0.1675000E+03   0.8507114E-02   0.9459421E-02   0.8959994E-02
  0.1685000E+03   0.8743159E-02   0.9718388E-02   0.9207218E-02
  0.1695000E+03   0.8982131E-02   0.9979658E-02   0.9457063E-02
  0.1705000E+03   0.9223937E-02   0.1024310E-01   0.9709417E-02
  0.1715000E+03   0.9468483E-02   0.1050857E-01   0.9964163E-02
  0.1725000E+03   0.9715668E-02   0.1077593E-01   0.1022118E-01
  0.1735000E+03   0.9965390E-02   0.1104505E-01   0.1048035E-01
  0.1745000E+03   0.1021754E-01   0.1131577E-01   0.1074155E-01
  0.1755000E+03   0.1047201E-01   0.1158795E-01   0.1100465E-01
  0.1765000E+03   0.1072869E-01   0.1186144E-01   0.1126952E-01
  0.1775000E+03   0.1098746E-01   0.1213610E-01   0.1153602E-01
  0.1785000E+03   0.1124820E-01   0.1241176E-01   0.1180403E-01
  0.1795000E+03   0.1151079E-01   0.1268829E-01   0.1207341E-01
  0.1805000E+03   0.1177511E-01   0.1296552E-01   0.1234401E-01
  0.1815000E+03   0.1204102E-01   0.1324331E-01   0.1261571E-01
  0.1825000E+03   0.1230841E-01   0.1352149E-01   0.1288835E-01
  0.1835000E+03   0.1257713E-01   0.1379991E-01   0.1316179E-01
  0.1845000E+03   0.1284705E-01   0.1407843E-01   0.1343590E-01
  0.1855000E+03   0.1311805E-01   0.1435688E-01   0.1371053E-01
  0.1865000E+03   0.1338997E-01   0.1463511E-01   0.1398552E-01
  0.1875000E+03   0.1366270E-01   0.1491297E-01   0.1426075E-01
  0.1885000E+03   0.1393607E-01   0.1519031E-01   0.1453605E-01
  0.1895000E+03   0.1420996E-01   0.1546697E-01   0.1481129E-01
  0.1905000E+03   0.1448422E-01   0.1574280E-01   0.1508632E-01
  0.1915000E+03   0.1475872E-01   0.1601765E-01   0.1536100E-01
  0.1925000E+03   0.1503330E-01   0.1629139E-01   0.1563517E-01
  0.1935000E+03   0.1530782E-01   0.1656384E-01   0.1590870E-01
  0.1945000E+03   0.1558215E-01   0.1683489E-01   0.1618144E-01
  0.1955000E+03   0.1585614E-01   0.1710437E-01   0.1645325E-01
  0.1965000E+03   0.1612964E-01   0.1737216E-01   0.1672399E-01
  0.1975000E+03   0.1640252E-01   0.1763811E-01   0.1699351E-01
  0.1985000E+03   0.1667462E-01   0.1790209E-01   0.1726168E-01
  0.1995000E+03   0.1694582E-01   0.1816397E-01   0.1752836E-01
  0.2005000E+03   0.1721596E-01   0.1842360E-01   0.1779341E-01
  0.2015000E+03   0.1748491E-01   0.1868088E-01   0.1805671E-01
  0.2025000E+03   0.1775254E-01   0.1893566E-01   0.1831811E-01
  0.2035000E+03   0.1801870E-01   0.1918783E-01   0.1857750E-01
  0.2045000E+03   0.1828325E-01   0.1943727E-01   0.1883474E-01
  0.2055000E+03   0.1854607E-01   0.1968387E-01   0.1908970E-01
  0.2065000E+03   0.1880703E-01   0.1992751E-01   0.1934227E-01
  0.2075000E+03   0.1906598E-01   0.2016808E-01   0.1959233E-01
  0.2085000E+03   0.1932281E-01   0.2040547E-01   0.1983976E-01
  0.2095000E+03   0.1957739E-01   0.2063959E-01   0.2008444E-01
  0.2105000E+03   0.1982959E-01   0.2087034E-01   0.2032627E-01
  0.2115000E+03   0.2007929E-01   0.2109761E-01   0.2056513E-01
  0.2125000E+03   0.2032638E-01   0.2132133E-01   0.2080093E-01
  0.2135000E+03   0.2057074E-01   0.2154139E-01   0.2103355E-01
  0.2145000E+03   0.2081226E-01   0.2175773E-01   0.2126290E-01
  0.2155000E+03   0.2105082E-01   0.2197024E-01   0.2148889E-01
  0.2165000E+03   0.2128631E-01   0.2217887E-01   0.2171141E-01
  0.2175000E+03   0.2151864E-01   0.2238353E-01   0.2193039E-01
  0.2185000E+03   0.2174770E-01   0.2258416E-01   0.2214574E-01
  0.2195000E+03   0.2197339E-01   0.2278069E-01   0.2235738E-01
  0.2205000E+03   0.2219563E-01   0.2297306E-01   0.2256522E-01
  0.2215000E+03   0.2241430E-01   0.2316121E-01   0.2276920E-01
  0.2225000E+03   0.2262934E-01   0.2334509E-01   0.2296923E-01
  0.2235000E+03   0.2284065E-01   0.2352465E-01   0.2316526E-01
  0.2245000E+03   0.2304815E-01   0.2369983E-01   0.2335722E-01
  0.2255000E+03   0.2325177E-01   0.2387061E-01   0.2354505E-01
  0.2265000E+03   0.2345142E-01   0.2403693E-01   0.2372869E-01
  0.2275000E+03   0.2364705E-01   0.2419876E-01   0.2390809E-01
  0.2285000E+03   0.2383857E-01   0.2435607E-01   0.2408320E-01
  0.2295000E+03   0.2402593E-01   0.2450884E-01   0.2425396E-01
  0.2305000E+03   0.2420907E-01   0.2465703E-01   0.2442035E-01
  0.2315000E+03   0.2438793E-01   0.2480062E-01   0.2458232E-01
  0.2325000E+03   0.2456245E-01   0.2493960E-01   0.2473983E-01
  0.2335000E+03   0.2473259E-01   0.2507395E-01   0.2489286E-01
  0.2345000E+03   0.2489831E-01   0.2520366E-01   0.2504136E-01
  0.2355000E+03   0.2505955E-01   0.2532872E-01   0.2518532E-01
  0.2365000E+03   0.2521628E-01   0.2544912E-01   0.2532472E-01
  0.2375000E+03   0.2536847E-01   0.2556487E-01   0.2545954E-01
  0.2385000E+03   0.2551608E-01   0.2567596E-01   0.2558975E-01
  0.2395000E+03   0.2565909E-01   0.2578240E-01   0.2571535E-01
  0.2405000E+03   0.2579746E-01   0.2588419E-01   0.2583633E-01
  0.2415000E+03   0.2593118E-01   0.2598134E-01   0.2595269E-01
  0.2425000E+03   0.2606023E-01   0.2607387E-01   0.2606441E-01
  0.2435000E+03   0.2616180E-01   0.2618460E-01   0.2617150E-01
  0.2445000E+03   0.2624512E-01   0.2630427E-01   0.2627396E-01
  0.2455000E+03   0.2632388E-01   0.2641924E-01   0.2637180E-01
  0.2465000E+03   0.2639809E-01   0.2652949E-01   0.2646502E-01
  0.2475000E+03   0.2646777E-01   0.2663503E-01   0.2655364E-01
  0.2485000E+03   0.2653296E-01   0.2673586E-01   0.2663767E-01
  0.2495000E+03   0.2659367E-01   0.2683198E-01   0.2671713E-01
  0.2505000E+03   0.2664995E-01   0.2692340E-01   0.2679203E-01
  0.2515000E+03   0.2670183E-01   0.2701013E-01   0.2686239E-01
  0.2525000E+03   0.2674934E-01   0.2709218E-01   0.2692825E-01
  0.2535000E+03   0.2679251E-01   0.2716956E-01   0.2698962E-01
  0.2545000E+03   0.2683140E-01   0.2724230E-01   0.2704653E-01
  0.2555000E+03   0.2686603E-01   0.2731040E-01   0.2709902E-01
  0.2565000E+03   0.2689645E-01   0.2737391E-01   0.2714711E-01
  0.2575000E+03   0.2692271E-01   0.2743283E-01   0.2719084E-01
  0.2585000E+03   0.2694486E-01   0.2748720E-01   0.2723025E-01
  0.2595000E+03   0.2696293E-01   0.2753705E-01   0.2726538E-01
  0.2605000E+03   0.2697697E-01   0.2758241E-01   0.2729625E-01
  0.2615000E+03   0.2698705E-01   0.2762332E-01   0.2732292E-01
  0.2625000E+03   0.2699320E-01   0.2765980E-01   0.2734543E-01
  0.2635000E+03   0.2699548E-01   0.2769190E-01   0.2736382E-01
  0.2645000E+03   0.2699394E-01   0.2771966E-01   0.2737814E-01
  0.2655000E+03   0.2698864E-01   0.2774312E-01   0.2738844E-01
  0.2665000E+03   0.2697963E-01   0.2776232E-01   0.2739476E-01
  0.2675000E+03   0.2696697E-01   0.2777731E-01   0.2739716E-01
  0.2685000E+03   0.2695072E-01   0.2778814E-01   0.2739568E-01
  0.2695000E+03   0.2693092E-01   0.2779484E-01   0.2739038E-01
  0.2705000E+03   0.2690765E-01   0.2779748E-01   0.2738131E-01
  0.2715000E+03   0.2688095E-01   0.2779611E-01   0.2736853E-01
  0.2725000E+03   0.2685089E-01   0.2779077E-01   0.2735208E-01
  0.2735000E+03   0.2681753E-01   0.2778151E-01   0.2733204E-01
  0.2745000E+03   0.2678093E-01   0.2776841E-01   0.2730845E-01
  0.2755000E+03   0.2674114E-01   0.2775150E-01   0.2728136E-01
  0.2765000E+03   0.2669824E-01   0.2773085E-01   0.2725085E-01
  0.2775000E+03   0.2665227E-01   0.2770651E-01   0.2721697E-01
  0.2785000E+03   0.2660331E-01   0.2767854E-01   0.2717977E-01
  0.2795000E+03   0.2655141E-01   0.2764701E-01   0.2713933E-01
  0.2805000E+03   0.2649663E-01   0.2761196E-01   0.2709569E-01
  0.2815000E+03   0.2643904E-01   0.2757347E-01   0.2704891E-01
  0.2825000E+03   0.2637870E-01   0.2753159E-01   0.2699907E-01
  0.2835000E+03   0.2631567E-01   0.2748639E-01   0.2694621E-01
  0.2845000E+03   0.2625001E-01   0.2743792E-01   0.2689041E-01
  0.2855000E+03   0.2618178E-01   0.2738626E-01   0.2683172E-01
  0.2865000E+03   0.2611105E-01   0.2733145E-01   0.2677020E-01
  0.2875000E+03   0.2603787E-01   0.2727358E-01   0.2670592E-01
  0.2885000E+03   0.2596231E-01   0.2721269E-01   0.2663894E-01
  0.2895000E+03   0.2588442E-01   0.2714886E-01   0.2656931E-01
  0.2905000E+03   0.2580427E-01   0.2708214E-01   0.2649711E-01
  0.2915000E+03   0.2572192E-01   0.2701260E-01   0.2642239E-01
  0.2925000E+03   0.2563743E-01   0.2694031E-01   0.2634521E-01
  0.2935000E+03   0.2555085E-01   0.2686533E-01   0.2626564E-01
  0.2945000E+03   0.2546225E-01   0.2678772E-01   0.2618373E-01
  0.2955000E+03   0.2537168E-01   0.2670755E-01   0.2609955E-01
  0.2965000E+03   0.2527920E-01   0.2662488E-01   0.2601315E-01
  0.2975000E+03   0.2518487E-01   0.2653978E-01   0.2592460E-01
  0.2985000E+03   0.2508875E-01   0.2645230E-01   0.2583396E-01
  0.2995000E+03   0.2499089E-01   0.2636251E-01   0.2574128E-01
  0.3005000E+03   0.2489135E-01   0.2627048E-01   0.2564662E-01
  0.3015000E+03   0.2479018E-01   0.2617626E-01   0.2555005E-01
  0.3025000E+03   0.2468744E-01   0.2607992E-01   0.2545162E-01
  0.3035000E+03   0.2458319E-01   0.2598152E-01   0.2535138E-01
  0.3045000E+03   0.2447747E-01   0.2588112E-01   0.2524940E-01
  0.3055000E+03   0.2437033E-01   0.2577879E-01   0.2514573E-01
  0.3065000E+03   0.2426184E-01   0.2567457E-01   0.2504043E-01
  0.3075000E+03   0.2415204E-01   0.2556854E-01   0.2493355E-01
  0.3085000E+03   0.2404099E-01   0.2546075E-01   0.2482514E-01
  0.3095000E+03   0.2392872E-01   0.2535126E-01   0.2471527E-01
  0.3105000E+03   0.2381530E-01   0.2524013E-01   0.2460398E-01
