#w    R(w)_min   R(w)_max   R(w)_avg 
0.5   -7.1872759125472465e-06   -1.0129207007534977e-05   -8.940694069588863e-06
1.5002000400080016   -8.457684586140226e-06   -1.120157282992605e-05   -1.0141277710151687e-05
2.500400080016003   -9.675706730791986e-06   -1.2301976207122257e-05   -1.1319303524439743e-05
3.5006001200240044   -1.0772224353248857e-05   -1.3412603255304215e-05   -1.2429206596597988e-05
4.500800160032006   -1.1683178360679653e-05   -1.4521087513210134e-05   -1.3430470134256664e-05
5.501000200040008   -1.23515462206731e-05   -1.562160026455688e-05   -1.4289253396519621e-05
6.501200240048009   -1.2814835677715456e-05   -1.6763827800538825e-05   -1.5050646964713885e-05
7.501400280056011   -1.3236688228054404e-05   -1.8069187341796996e-05   -1.586428987851819e-05
8.501600320064012   -1.379067262799433e-05   -1.9664503487925116e-05   -1.6887984062410768e-05
9.501800360072014   -1.4651186709631347e-05   -2.1676844830057864e-05   -1.828015395631585e-05
10.502000400080016   -1.5993436097238356e-05   -2.4233502430509476e-05   -2.019982192442647e-05
11.502200440088018   -1.7993412751044296e-05   -2.7461968177850296e-05   -2.2806583475271335e-05
12.502400480096018   -2.082080597068126e-05   -3.1485020564696384e-05   -2.6254155514065438e-05
13.50260052010402   -2.4538706364673683e-05   -3.635138881981548e-05   -3.059926310705585e-05
14.502800560112021   -2.9126275166537422e-05   -4.205181390804827e-05   -3.582260481111116e-05
15.503000600120023   -3.455911772351215e-05   -4.857483539357171e-05   -4.1902077659836826e-05
16.503200640128025   -4.081148908041467e-05   -5.590834151827902e-05   -4.881479980474262e-05
17.503400680136025   -4.785633459233586e-05   -6.403961916462447e-05   -5.653716304010999e-05
18.50360072014403   -5.566533097950329e-05   -7.295540433757057e-05   -6.504488589198622e-05
19.50380076015203   -6.418473637625099e-05   -8.261358958656492e-05   -7.428827538137838e-05
20.504000800160032   -7.321336015427055e-05   -9.279983949730748e-05   -8.406680248249504e-05
21.504200840168032   -8.249255527969767e-05   -0.00010323209358441919   -9.412047800522919e-05
22.504400880176036   -9.1760070210137e-05   -0.00011362345238463909   -0.00010418485068256172
23.504600920184036   -0.00010075013136930524   -0.0001236822476335588   -0.00011399106730774687
24.504800960192036   -0.0001091934341745897   -0.00013311200515842459   -0.00012326583902272587
25.50500100020004   -0.00011681753142388147   -0.000141611773356671   -0.00013173176541234806
26.50520104020804   -0.0001234557938869706   -0.00014897655903718413   -0.00013920561558560985
27.505401080216043   -0.0001291980392560247   -0.00015523699586205499   -0.0001457349199936465
28.505601120224043   -0.00013417316146809686   -0.00016045992258657235   -0.00015140273271830836
29.505801160232046   -0.00013851237996862097   -0.0001647146140989558   -0.0001562945727168879
30.506001200240046   -0.00014234924683566457   -0.0001680728186742924   -0.00016049845329479256
31.50620124024805   -0.00014581965396962698   -0.00017060879566348274   -0.00016410491190948573
32.50640128025605   -0.00014905893659409298   -0.0001723968903187914   -0.0001672054272896366
33.50660132026405   -0.0001521493265783535   -0.00017346701020334014   -0.00016986306717328283
34.50680136027205   -0.0001551237452321793   -0.00017380794114839942   -0.00017211386016293377
35.50700140028005   -0.00015801229904568233   -0.00017340681000020913   -0.00017399231343950738
36.50720144028806   -0.00016084396927719158   -0.00017225049879612234   -0.00017553232213465033
37.50740148029606   -0.0001636465911422329   -0.0001703256070699047   -0.0001767671331019853
38.50760152030406   -0.00016644683278104635   -0.0001676184136627503   -0.00017772930825519058
39.50780156031206   -0.00016927318994781142   -0.00016410852710467406   -0.00017844037248597967
40.508001600320064   -0.00017216831348697517   -0.00015974532745866444   -0.00017887366345895343
41.50820164032806   -0.000175181764223131   -0.0001544675156769692   -0.00017898882285491438
42.508401680336064   -0.00017836637878474617   -0.00014821139391158416   -0.0001787456866123438
43.50860172034407   -0.00018177823422572218   -0.0001409109116036868   -0.0001781042966344666
44.50880176035207   -0.0001854766113274467   -0.000132497708181231   -0.00017702490956566884
45.50900180036007   -0.00018951941610493146   -0.00012290431000472096   -0.00017546777844112098
46.50920184036807   -0.0001937950590832552   -0.0001121815479713847   -0.00017338503579012205
47.509401880376075   -0.0001979690657054007   -0.00010053673880407659   -0.00017071829195186558
48.50960192038407   -0.00020168771451581642   -8.819218868423356e-05   -0.00016740862005939423
49.509801960392075   -0.0002045925162930866   -7.537511479349181e-05   -0.000163397269107432
50.51000200040008   -0.00020632029395594302   -6.231759207507647e-05   -0.00015862567531512348
51.51020204040808   -0.00020650326160275004   -4.9256500803416014e-05   -0.00015303547348493552
52.51040208041608   -0.00020481351586465753   -3.639202574047298e-05   -0.00014656799525026058
53.51060212042408   -0.00020115950624306224   -2.3704091434542384e-05   -0.00013916191785883804
54.510802160432085   -0.0001955304062197575   -1.1097143392215074e-05   -0.00013075487476526523
55.51100220044009   -0.00018791659636157508   1.525717566816299e-06   -0.0001212843448357226
56.511202240448085   -0.0001783095905425531   1.4262655622539182e-05   -0.00011068765933100123
57.51140228045609   -0.00016670202026442554   2.7213074551837575e-05   -9.89020081773441e-05
58.51160232046409   -0.00015308840540675155   4.047831668268618e-05   -8.586462894166356e-05
59.51180236047209   -0.00013748850640760843   5.4183238910898815e-05   -7.15182335815344e-05
60.51200240048009   -0.00011995088714307164   6.847986601043256e-05   -5.581179308921625e-05
61.512202440488096   -0.00010052603120309381   8.35228098592017e-05   -3.8694268107260235e-05
62.5124024804961   -7.926473658476671e-05   9.946779480616591e-05   -2.0114237688828707e-05
63.512602520504096   -5.621811145578152e-05   0.00011647165297024129   -1.99007496785034e-08
64.5128025605121   -3.1437569827189636e-05   0.00013469231941291298   2.164092247210528e-05
65.5130026005201   -4.958349860182711e-06   0.00015426229630866563   4.4916317359333096e-05
66.5132026405281   2.3245576357139585e-05   0.0001752160547898063   6.983809958429283e-05
67.5134026805361   5.321458217801557e-05   0.0001975655873567649   9.643465136698707e-05
68.5136027205441   8.498909131501203e-05   0.00022132342399091418   0.0001247348153494352
69.51380276055211   0.00011860957316099114   0.00024650263815616176   0.00015476789664098725
70.5140028005601   0.00015411653821928675   0.0002731168527592526   0.00018656366490481217
71.51420284056812   0.0001915476619334681   0.00030118233945218846   0.00022015090534625848
72.51440288057611   0.00023090495411382612   0.0003307421819321408   0.00025554072018924316
73.51460292058411   0.0002721668985735229   0.000361858189309476   0.00029273229080857744
74.51480296059212   0.0003153126242457206   0.00039459353881010937   0.0003317249656114915
75.51500300060012   0.0003603223987083228   0.00042901244160239885   0.00037251850009759405
76.51520304060811   0.0004071776529370185   0.00046518014820791685   0.0004151130611473361
77.51540308061612   0.0004558609418231373   0.0005031623624779712   0.000459509069939745
78.51560312062412   0.0005063514019118462   0.0005429835721592499   0.0005056959061511238
79.51580316063212   0.0005586213863212611   0.0005845980137627172   0.0005536444131685346
80.51600320064013   0.0006126430114500506   0.0006279510485613632   0.000603323909921346
81.51620324064812   0.00066838885483923   0.0006729854998528149   0.000654703947408546
82.51640328065612   0.0007258319650755358   0.0007196416071709588   0.0007077543134312045
83.51660332066413   0.0007849458715830205   0.0007678569804585092   0.0007624450373081112
84.51680336067213   0.000845688142020447   0.0008175683675998642   0.0008187417636401262
85.51700340068014   0.000907954456161543   0.0008687176601163202   0.0008765925800806316
86.51720344068814   0.0009716274313442758   0.0009212481732089932   0.0009359413363134155
87.51740348069613   0.0010365918400899892   0.0009751032089683536   0.0009967318588630122
88.51760352070414   0.001102734662872477   0.0010302260628806187   0.0010589079544490692
89.51780356071214   0.0011699451407851135   0.0010865600303968266   0.0011224134133050628
90.51800360072014   0.0012381338392338773   0.0011440522078226007   0.0011871907633557246
91.51820364072815   0.0013073733011096898   0.0012026827837119168   0.0012531718692335018
92.51840368073614   0.001377813908760554   0.0012624516077199648   0.0013202830099768926
93.51860372074414   0.0014496021724731251   0.0013233628134772725   0.0013884501271751695
94.51880376075215   0.0015228799905347547   0.0013854247673952503   0.0014575988662212376
95.51900380076015   0.0015977845320802177   0.0014486501388789829   0.0015276545770062234
96.51920384076814   0.0016744178484174926   0.0015130632466124783   0.0015985421510798191
97.51940388077615   0.0017522941996358963   0.0015788326163677791   0.0016701830021318234
98.51960392078415   0.0018303961245192209   0.0016462562604346235   0.0017424952252724677
99.51980396079216   0.001907681059057489   0.0017156394199309122   0.001815396273995452
100.52000400080016   0.0019831002337236383   0.0017872900247015552   0.0018888030585621548
101.52020404080815   0.00205559871987351   0.0018615186925976714   0.001962631943470575
102.52040408081616   0.0021241298284843018   0.0019386334070367105   0.0020367987744379515
103.52060412082416   0.0021883660021748503   0.0020186756242504098   0.0021112203230776645
104.52080416083216   0.002249031831698277   0.002101295023818727   0.0021858148696866438
105.52100420084017   0.00230694106562213   0.002186105538426347   0.002260500157546045
106.52120424084816   0.0023629144810416846   0.002272715697225066   0.0023351932162746832
107.52140428085616   0.0024177799024588374   0.0023607285437973555   0.0024098103564047404
108.52160432086417   0.0024723707396891474   0.0024497415939482804   0.002484267183742568
109.52180436087217   0.002527263906306649   0.0025393541619987262   0.0025584820979809163
110.52200440088018   0.0025824747672300937   0.0026291776228988327   0.0026323802928530215
111.52220444088817   0.002637944332443421   0.002718823607519249   0.0027058871518989966
112.52240448089617   0.0026936117686652094   0.002807902150491143   0.0027789272645609058
113.52260452090418   0.002749414372057747   0.002896021733276691   0.00285142441864055
114.52280456091218   0.002805287613331943   0.0029827893421106376   0.0029233015962110494
115.52300460092017   0.002861245409299282   0.0030678271855403712   0.002994484882244641
116.52320464092818   0.0029175356454627602   0.003150803675831523   0.0030649109712994694
117.52340468093618   0.0029744512332717486   0.003231392297273167   0.003134517843971946
118.52360472094418   0.003032288005568253   0.003309262685274561   0.0032032426964133435
119.52380476095219   0.0030913446646573667   0.003384080645587766   0.003271021931777369
120.52400480096018   0.003151922724099817   0.0034555081790188466   0.0033377911517234117
121.52420484096818   0.0032141537357917058   0.003523357121771265   0.0034034888592759664
122.52440488097619   0.0032775475373529   0.003587991030625808   0.003468066150495362
123.52460492098419   0.0033414700524493743   0.003649900385674301   0.0035314764285358825
124.5248049609922   0.0034052826974990138   0.0037095786099132313   0.0035936723993048986
125.5250050010002   0.003468342431928593   0.0037675220110563205   0.0036546060630609327
126.52520504100819   0.003530001807719011   0.003824229723831109   0.0037142287059326456
127.5254050810162   0.0035897402258748814   0.0038800937441901715   0.0037724942620860303
128.5256051210242   0.0036475618012911095   0.003935065585087908   0.0038293695444374535
129.5258051610322   0.0037036034118238083   0.0039889844992213345   0.0038848242010790014
130.5260052010402   0.0037580026214157325   0.004041688086094209   0.003938827320216591
131.52620524104822   0.0038108976574867852   0.0040930122934595674   0.003991347422792298
132.5264052810562   0.003862427388464659   0.004142791418556429   0.004042352455046494
133.5266053210642   0.003912699197805251   0.004190891927746118   0.004091812838453806
134.5268053610722   0.003961690702085961   0.0042373159545001406   0.00413971084592213
135.5270054010802   0.004009345982514279   0.004282099891424392   0.004186031474753289
136.5272054410882   0.004055608319563049   0.004325279896329845   0.004230759329786573
137.52740548109622   0.004100420191872787   0.004366891886367187   0.00427387861775248
138.52760552110422   0.004143723275254325   0.004406971531879251   0.00431537314164492
139.52780556111222   0.004185468333575603   0.00444554100356887   0.004355229146302843
140.5280056011202   0.004225641978795672   0.004482573490015709   0.004393443023828693
141.5282056411282   0.004264239053444932   0.004518030769622976   0.004430013344730224
142.52840568113623   0.004301254312207853   0.004551874418842406   0.004464938456536226
143.52860572114423   0.004336682419761653   0.004584065804228963   0.004498216480122668
144.52880576115223   0.004370517949437115   0.00461456608432282   0.004529845307663666
145.52900580116022   0.004402756703877451   0.00464335224694257   0.004559825281992384
146.52920584116822   0.00443339813642236   0.004670450140390677   0.0045881647257382165
147.52940588117622   0.004462441695509794   0.00469589551550363   0.0046148734359337746
148.52960592118424   0.004489886013326791   0.004719724890453892   0.004639961154797504
149.52980596119224   0.0045157288970693625   0.0047419755596688415   0.004663437568235086
150.53000600120023   0.004539967340850755   0.004762685570642119   0.0046853123141845894
151.53020604120823   0.004562602527884428   0.004781885990832064   0.00470559733822084
152.53040608121623   0.004583646763960198   0.004799590458805103   0.0047243100068412765
153.53060612122422   0.004603114097555816   0.004815809997614394   0.0047414685143899096
154.53080616123225   0.004621018761399332   0.004830555450419868   0.004757091133789836
155.53100620124025   0.00463737517477865   0.004843837477263966   0.004771196216873132
156.53120624124824   0.0046521980502342575   0.0048556665696720385   0.004783802224072874
157.53140628125624   0.004665509211007233   0.004866054191148998   0.004794929637438222
158.53160632126423   0.00467734203413244   0.00487501341421968   0.004804602188919855
159.53180636127226   0.00468773161188155   0.004882557166420376   0.004812844081695642
160.53200640128026   0.004696713775509163   0.004888698055807525   0.0048196797149525185
161.53220644128825   0.0047043251032540005   0.0048934483672798115   0.004825133685902607
162.53240648129625   0.004710602602370135   0.004896820515493722   0.004829230834467765
163.53260652130425   0.004715575794320836   0.004898838146758297   0.004831997277400974
164.53280656131224   0.004719265907340196   0.004899537323595735   0.004833460499499032
165.53300660132027   0.0047216938140250036   0.004898955438304163   0.004833648311172422
166.53320664132826   0.00472288042967133   0.004897130665047837   0.004832588799489608
167.53340668133626   0.0047228467129441535   0.004894101968477671   0.004830310331438878
168.53360672134426   0.004721614007872499   0.004889907844746548   0.004826841552678144
169.53380676135225   0.0047192076233246285   0.004884573135394793   0.004822211350851936
170.53400680136028   0.00471565566106791   0.004878113699461551   0.004816448899193687
171.53420684136827   0.0047109867134161165   0.004870545075025436   0.004809583698671004
172.53440688137627   0.004705229830869004   0.004861882618808592   0.004801645582641077
173.53460692138427   0.004698414526985955   0.004852141507005179   0.0047926647210054935
174.53480696139226   0.004690571248112709   0.0048413390394205676   0.004782671390045882
175.53500700140026   0.0046817333645466485   0.004829505048270269   0.004771694942062061
176.53520704140828   0.004671935362725352   0.004816674119250149   0.004759764653377012
177.53540708141628   0.004661211973750399   0.004802881484805928   0.00474691015697974
178.53560712142428   0.004649598175654467   0.004788163028259392   0.0047331614474828915
179.53580716143227   0.004637129187165305   0.004772555286989838   0.0047185488838581025
180.53600720144027   0.004623836595532623   0.004756093694217527   0.004703102374481368
181.5362072414483   0.004609742293125431   0.0047388097842283716   0.004686850104005407
182.5364072814563   0.004594866734247343   0.004720734910776406   0.004669820290907934
183.5366073214643   0.004579230479837026   0.004701900951996808   0.004652041519124852
184.53680736147228   0.004562854200170805   0.004682340317481576   0.0046335427429102585
185.53700740148028   0.0045457587038343645   0.00466208574858799   0.004614353234903659
186.53720744148828   0.004527965750127889   0.004641163960223886   0.004594500852476921
187.5374074814963   0.004509498246731576   0.004619594219932564   0.004574011702465215
188.5376075215043   0.004490379358692529   0.0045973954568062705   0.0045529121239176835
189.5378075615123   0.004470632455998594   0.004574586700594307   0.0045312288136995765
190.5380076015203   0.004450281116413328   0.004551187083655747   0.0045089888313364895
191.5382076415283   0.004429349997255101   0.0045272167524662175   0.004486219292658075
192.53840768153628   0.004407871651061675   0.004502703982733785   0.004462944970688635
193.5386077215443   0.00438588322526105   0.004477681673828962   0.0044391895849227175
194.5388077615523   0.004363422713981204   0.004452183411838659   0.004414977177571257
195.5390078015603   0.004340528935635527   0.0044262434455382416   0.004390332129559558
196.5392078415683   0.004317241540266718   0.004399896690869399   0.00436527916455183
197.5394078815763   0.0042935979363548475   0.004373171026508202   0.0043398423322110816
198.53960792158432   0.004269626910799467   0.004346071243655405   0.004314042909659851
199.53980796159232   0.0042453560780252005   0.004318597564504534   0.004287901891678767
200.5400080016003   0.004220813643330414   0.004290750019073562   0.0042614405785008
201.5402080416083   0.004196028412129237   0.004262528443414707   0.004234680580065181
202.5404080816163   0.004171029465760372   0.004233933729717284   0.004207643747406413
203.5406081216243   0.004145837175331213   0.004205001230054091   0.004180350234587583
204.54080816163233   0.0041204616265311245   0.004175805049383757   0.004152818267343407
205.54100820164032   0.004094911911951835   0.004146422398525227   0.0041250662300566475
206.54120824164832   0.004069196633339215   0.004116931659457205   0.00409711278291239
207.54140828165632   0.004043323890753598   0.004087412394175387   0.004068976865755827
208.5416083216643   0.004017296327661766   0.0040579313773557125   0.004040677235426723
209.54180836167234   0.0039910859838123034   0.004028471036120832   0.004012230080412992
210.54200840168033   0.003964653093687297   0.003998981449695386   0.003983650759954274
211.54220844168833   0.003937957403879837   0.0039694120905013905   0.00395495486679945
212.54240848169633   0.003910958203821549   0.00393971188640248   0.003926158232488743
213.54260852170432   0.0038836150568297132   0.003909829846181868   0.003897276916038738
214.54280856171232   0.0038559490704679097   0.0038797678656321416   0.003868325957806241
215.54300860172035   0.0038280908474577218   0.0038496221792834007   0.003839318407320647
216.54320864172834   0.003800184174018238   0.0038195004770268303   0.0038102672933941974
217.54340868173634   0.0037723751346856456   0.0037895125400697854   0.003781185849390809
218.54360872174433   0.003744812123029892   0.0037597702606050314   0.0037520875161279736
219.54380876175233   0.003717609480775023   0.003730382659027668   0.003722985700590159
