#w    R(w)_min   R(w)_max   R(w)_avg 
0.5   -4.419849385579558e-06   -5.512278614311478e-06   -4.795704423251476e-06
1.5002000400080016   -5.962444062504444e-06   -7.431614892356256e-06   -6.470241374605872e-06
2.500400080016003   -7.29948138253658e-06   -8.99837611186821e-06   -7.900617748743934e-06
3.5006001200240044   -8.223961688186475e-06   -9.850847247709433e-06   -8.823299166512701e-06
4.500800160032006   -8.535914592140871e-06   -9.637748786700422e-06   -8.983556941168421e-06
5.501000200040008   -8.045965567653773e-06   -8.024392045216252e-06   -8.139899816990192e-06
6.501200240048009   -6.7323464530057824e-06   -4.963075938841318e-06   -6.259121176287841e-06
7.501400280056011   -4.798178079833903e-06   -7.920208501870488e-07   -3.587125655831818e-06
8.501600320064012   -2.4634445429651017e-06   4.122630048257594e-06   -3.9022632629293034e-07
9.501800360072014   5.129578189861946e-08   9.414853317570994e-06   3.065105975538922e-06
10.502000400080016   2.5249346504376893e-06   1.4718790435409277e-05   6.512275338160173e-06
11.502200440088018   4.735838527843548e-06   1.9668793359164776e-05   9.684593721988161e-06
12.502400480096018   6.476113116989849e-06   2.3922030015742237e-05   1.2332203112457497e-05
13.50260052010402   7.753140784018966e-06   2.7477224456540944e-05   1.446084984197327e-05
14.502800560112021   8.742003744389834e-06   3.0597273670643796e-05   1.627451062033411e-05
15.503000600120023   9.622890860549897e-06   3.355090044126556e-05   1.7982190808701052e-05
16.503200640128025   1.0576671125183539e-05   3.6605573095504584e-05   1.9792638366450097e-05
17.503400680136025   1.1784837968251626e-05   4.002735800627744e-05   2.1914245582000015e-05
18.50360072014403   1.3429452874364613e-05   4.408077037908073e-05   2.4554949641491233e-05
19.50380076015203   1.5715357011634104e-05   4.903452297615362e-05   2.7937651379697136e-05
20.504000800160032   1.8983168175853585e-05   5.519422410608731e-05   3.2380198400972244e-05
21.504200840168032   2.3627979517947692e-05   6.288733809605382e-05   3.8241630205564575e-05
22.504400880176036   3.005011569511397e-05   7.24515760614893e-05   4.58885025458934e-05
23.504600920184036   3.865508122006681e-05   8.423504314668273e-05   5.569492426855386e-05
24.504800960192036   4.9853592995821025e-05   9.859640886700905e-05   6.80426531868689e-05
25.50500100020004   6.406128815095683e-05   0.00011590478404296757   8.332090178282324e-05
26.50520104020804   8.160958208503963e-05   0.0001364581894955745   0.00010184620461060609
27.505401080216043   0.00010262208221875299   0.00016036631953614218   0.0001237492783003389
28.505601120224043   0.00012719206042866092   0.0001877080832833034   0.00014913222743812208
29.505801160232046   0.00015541249061554538   0.00021855861287549676   0.0001780953208501261
30.506001200240046   0.00018737604198392144   0.00025298918483628724   0.0002107369518210469
31.50620124024805   0.00022317507217409514   0.0002910671404143302   0.00024715359778067474
32.50640128025605   0.00026290393902843383   0.00033285816650322647   0.0002874408856983713
33.50660132026405   0.0003067007959083432   0.0003784699018141083   0.00033171417056896877
34.50680136027205   0.0003547439309318324   0.000428052548192437   0.00038010944389342023
35.50700140028005   0.00040721443963216117   0.0004817625589650925   0.00043276659926126947
36.50720144028806   0.00046429493870320525   0.0005397613443824693   0.000489828870609827
37.50740148029606   0.0005261696506689343   0.0006022153446548652   0.0005514429075524161
38.50760152030406   0.0005930244894726443   0.0006692961040043302   0.0006177588515951894
39.50780156031206   0.0006650412904756184   0.0007411559444441883   0.000688934095055277
40.508001600320064   0.0007423782478284511   0.0008178369662881591   0.0007651462581829002
41.50820164032806   0.0008251922772882711   0.0008993464705314264   0.0008465802625235627
42.508401680336064   0.0009136473268970988   0.0009856888789212834   0.0009334233018564695
43.50860172034407   0.001007914364462664   0.0010768658347050297   0.001025864882090344
44.50880176035207   0.0011081713676109523   0.001172876300875144   0.0011240968650174914
45.50900180036007   0.0012146004171646914   0.0012737247495552392   0.0012283127425687938
46.50920184036807   0.0013272802832163563   0.0013797213355257738   0.0013386797035402627
47.509401880376075   0.0014461501542590127   0.0014915748630440321   0.00145533019690418
48.50960192038407   0.0015711380491321152   0.0016100274008932023   0.0015783961654427683
49.509801960392075   0.001702170025736341   0.0017358284562521697   0.0017080114866846305
50.51000200040008   0.0018391702636811297   0.0018697349389948197   0.0018443120040782133
51.51020204040808   0.0019820611461960043   0.002012511127753084   0.0019874355583922787
52.51040208041608   0.002130782644255949   0.00216478004412319   0.0021375084971900805
53.51060212042408   0.002285377900245946   0.0023263691970193054   0.0022945861057478687
54.510802160432085   0.0024459259362134083   0.002496837402313461   0.002458700437643
55.51100220044009   0.002612507180613965   0.0026757419241610183   0.002629884619347186
56.511202240448085   0.002785203465302314   0.002862638709911828   0.0028081728905081237
57.51140228045609   0.002964098047860576   0.0030570824300850574   0.0029936006266471807
58.51160232046409   0.0031492748443480425   0.003258632764628541   0.003186202471099065
59.51180236047209   0.003340794676020864   0.0034670410507925196   0.0033859557592354423
60.51200240048009   0.0035386902551583672   0.0036822832179185935   0.0035927700330476617
61.512202440488096   0.0037429924965650604   0.003904348382908481   0.003806550780411371
62.5124024804961   0.003953732099318341   0.004133226182243867   0.004027203265631941
63.512602520504096   0.004170939538179626   0.004368906767788741   0.004254632533330586
64.5128025605121   0.004394645054575512   0.004611380801950163   0.004488743411906696
65.5130026005201   0.0046248396375062   0.004860587896118047   0.004729418374849787
66.5132026405281   0.00486136866642517   0.005116274819222111   0.004976456590812203
67.5134026805361   0.005104043654304441   0.005378141092209437   0.005229636351530833
68.5136027205441   0.005352676184816606   0.005645883506315885   0.005488734172277777
69.51380276055211   0.005607077928987948   0.0059191960860345404   0.005753524769952565
70.5140028005601   0.005867060661300152   0.006197770051794004   0.006023781040764383
71.51420284056812   0.006132432626814527   0.006481291020115894   0.006299269936506041
72.51440288057611   0.006402955773742223   0.006769406663648764   0.006579705054951222
73.51460292058411   0.006678357599906584   0.00706173592341971   0.006864762259750206
74.51480296059212   0.00695836063208757   0.007357891372222813   0.007154113585049869
75.51500300060012   0.007242682939827368   0.00765747955481511   0.0074474278522566936
76.51520304060811   0.007531038063536861   0.007960100883343537   0.007744370621645144
77.51540308061612   0.0078231345794977   0.008265349970509078   0.008044603948622012
78.51560312062412   0.008118650458184452   0.008572847403971899   0.008347772664719285
79.51580316063212   0.008417215005642409   0.008882267011530855   0.00865349505695317
80.51600320064013   0.00871844626685105   0.00919329385245465   0.008961383190092204
81.51620324064812   0.009021954802114374   0.009505619758234168   0.009271044946562647
82.51640328065612   0.009327343555316002   0.009818943467509833   0.009582083957474341
83.51660332066413   0.009634207721049858   0.010132970761281302   0.009894099532864528
84.51680336067213   0.009942139095290927   0.010447388393273154   0.010206689858571923
85.51700340068014   0.010250739958704855   0.01076178377008047   0.01051946117301643
86.51720344068814   0.010559612214832944   0.011075710254959997   0.010832018214048247
87.51740348069613   0.010868353532767983   0.011388709419929817   0.011143961156977654
88.51760352070414   0.011176557276791725   0.011700310825006615   0.01145488553434433
89.51780356071214   0.01148381243520798   0.012010031795610498   0.011764382154803089
90.51800360072014   0.011789709691293648   0.012317387320943115   0.012072042198061263
91.51820364072815   0.012093888255384261   0.012621967175709667   0.012377495985608054
92.51840368073614   0.012396012637780436   0.012923397707041082   0.012680391530799258
93.51860372074414   0.012695747273970936   0.013221300007019621   0.012980372626384434
94.51880376075215   0.01299275630728254   0.013515289510038669   0.013277078594676245
95.51900380076015   0.013286703568669705   0.013804975914497856   0.013570144205038475
96.51920384076814   0.013577252015205413   0.0140899696641513   0.01385920237066312
97.51940388077615   0.013864053109200965   0.014370002180850598   0.014143934967787403
98.51960392078415   0.014146744902394696   0.014644915838938745   0.014424068220159889
99.51980396079216   0.014424959885207178   0.014914554960914995   0.014699326344895191
100.52000400080016   0.014698325234075042   0.015178761651226221   0.014969429752366212
101.52020404080815   0.014966462740232198   0.015437375700015125   0.01523409497243615
102.52040408081616   0.015228992919685947   0.015690232408536363   0.015493035484370418
103.52060412082416   0.015485742523606098   0.01593705920985903   0.015746006486420185
104.52080416083216   0.015736843976858837   0.01617742535627128   0.015992826096294727
105.52100420084017   0.015982456052846327   0.01641088020368525   0.016233314768820107
106.52120424084816   0.01622273989059274   0.016636965066742004   0.016467290067549763
107.52140428085616   0.016457858900506887   0.016855213219204804   0.016694566606568335
108.52160432086417   0.016687976282623525   0.017065152097882293   0.01691495617006564
109.52180436087217   0.01691283297306329   0.01726669314594276   0.01712829921852603
110.52200440088018   0.017131259099806895   0.01746058427152274   0.01733450170818093
111.52220444088817   0.017341961361676053   0.017647683675684166   0.017533476528917076
112.52240448089617   0.01754364001512998   0.017828851799771617   0.017725134743611502
113.52260452090418   0.017734988835162203   0.018004951282920643   0.017909385550845924
114.52280456091218   0.01791469550472087   0.0181768466402876   0.018086136264330883
115.52300460092017   0.01808191608213111   0.018345095431017224   0.018255311134589912
116.52320464092818   0.01823718470651611   0.01850935711888837   0.01841688785267003
117.52340468093618   0.01838128391733021   0.018669129482162372   0.01857085316801631
118.52360472094418   0.018514994741268925   0.018823911345519296   0.018717192996664102
119.52380476095219   0.018639096729305256   0.01897320251406531   0.018855892405760417
120.52400480096018   0.018754367989865947   0.01911650370883401   0.018986935598360823
121.52420484096818   0.018861488824970043   0.019253351094671047   0.01911031605681493
122.52440488097619   0.018960791516207203   0.019383405845221597   0.019226063286717894
123.52460492098419   0.019052530029534775   0.019506357070124068   0.019334215021043342
124.5248049609922   0.01913695814542797   0.019621893782063197   0.01943480906880854
125.5250050010002   0.01921432940901685   0.019729704959891448   0.019527883320776006
126.52520504100819   0.0192848970805378   0.019829479611474604   0.019613475755233416
127.5254050810162   0.01934887667661221   0.01992098507395392   0.019691629709319362
128.5256051210242   0.01940633330382398   0.020004303571755946   0.019762410011548943
129.5258051610322   0.019457294820259194   0.020079597267825915   0.019825887549616738
130.5260052010402   0.0195017897219194   0.020147029348268373   0.01988213403368975
131.52620524104822   0.019539847178545622   0.02020676402994535   0.019931222019594828
132.5264052810562   0.019571497069604288   0.020258966568446772   0.019973224932258803
133.5266053210642   0.01959680138493094   0.020303766886175408   0.020008219713766935
134.5268053610722   0.0196159506916016   0.020341148146984903   0.02003629498617046
135.5270054010802   0.01962917091375129   0.020371055684551345   0.02005754340082101
136.5272054410882   0.01963669151322626   0.020393434096108252   0.02007205902454637
137.52740548109622   0.019638745544495937   0.02040822726073467   0.020079937375804637
138.52760552110422   0.01963556970824371   0.020415378359817233   0.020081275461258017
139.52780556111222   0.019627306592831257   0.0204149316523834   0.020076173085103947
140.5280056011202   0.019613741296687214   0.02040730658738332   0.02006473636825955
141.5282056411282   0.019594576517246713   0.02039301178147495   0.020047074302349817
142.52840568113623   0.0195695151026261   0.02037255923769064   0.020023297732255356
143.52860572114423   0.019538260110106002   0.020346464373855053   0.01999351940034382
144.52880576115223   0.01950051492828244   0.02031524598763232   0.0199578539915985
145.52900580116022   0.019456086602329233   0.020279321915571094   0.019916418821971198
146.52920584116822   0.019405096856839187   0.020238795862589764   0.019869335197716588
147.52940588117622   0.019347728969839956   0.020193713355372553   0.019816726884804348
148.52960592118424   0.019284168695909876   0.020144121548187656   0.019758719787882628
149.52980596119224   0.019214604309445382   0.02009006927423626   0.019695441998037706
150.53000600120023   0.019139226883457747   0.02003160686984632   0.019627023839465803
151.53020604120823   0.019058286386053173   0.01996873189167407   0.019553597513115334
152.53040608121623   0.01897216446112159   0.019901318548609145   0.019475296555957342
153.53060612122422   0.018881263645199594   0.019829225049363398   0.019392256612833395
154.53080616123225   0.01878598943541196   0.019752311065974696   0.01930461560685137
155.53100620124025   0.018686750318976767   0.019670437798517217   0.01921251378703874
156.53120624124824   0.01858395592427434   0.019583469862242315   0.019116093743824038
157.53140628125624   0.018477895148153158   0.01949139349341416   0.019015498307785296
158.53160632126423   0.018368660973468263   0.01939438922525296   0.01891086914683856
159.53180636127226   0.018256330549635075   0.019292657191956015   0.018802349870325204
160.53200640128026   0.0181409830667418   0.0191863998766193   0.01869008638124454
161.53220644128825   0.01802269980011395   0.019075822154404634   0.018574226921273668
162.53240648129625   0.017901565408617055   0.01896112987126557   0.018454921888081448
163.53260652130425   0.017777698036317964   0.018842494705298567   0.018332318353742688
164.53280656131224   0.01765125074052645   0.018720052392342243   0.018206559628135586
165.53300660132027   0.01752238026017083   0.018593939239571568   0.01807779089554063
166.53320664132826   0.017391245506419305   0.018464293977771055   0.017946159534094813
167.53340668133626   0.01725800759919278   0.01833125780954638   0.01781181515647868
168.53360672134426   0.017122827136097005   0.01819497363586727   0.017674908754243802
169.53380676135225   0.01698583570794208   0.01805557732069552   0.01753558346134284
170.53400680136028   0.016847147037354602   0.017913200048945494   0.017393978076917758
171.53420684136827   0.016706876197061817   0.017767973752495593   0.01725023328313778
172.53440688137627   0.016565139945947393   0.01762003121849896   0.01710449177887632
173.53460692138427   0.016422056760287247   0.017469506109617124   0.016956898315249186
174.53480696139226   0.016277745844535955   0.01731653883144561   0.016807596970926087
175.53500700140026   0.016132322653348147   0.017161303150060005   0.016656718865121194
176.53520704140828   0.01598590258951679   0.017003986843664068   0.016504391840249925
177.53540708141628   0.01583860289448242   0.01684478138297535   0.01635074548116887
178.53560712142428   0.015690542676712504   0.016683881980693017   0.016195911148531455
179.53580716143227   0.015541842922866924   0.016521487617900676   0.01604002199377421
180.53600720144027   0.01539261973609056   0.016357787597295958   0.0158832066720116
181.5362072414483   0.015242973781245325   0.016192939960856183   0.015725579413219566
182.5364072814563   0.015093004837327829   0.016027099656902292   0.015567253415063214
183.5366073214643   0.014942814540580399   0.015860423889436245   0.0154083433724321
184.53680736147228   0.014792506421163573   0.015693072154339564   0.015248965501808194
185.53700740148028   0.014642184586893977   0.015525204784270615   0.015089237191652052
186.53720744148828   0.014491911982007138   0.015356936998732309   0.01492926555655087
187.5374074814963   0.014341700484888628   0.01518832827839211   0.014769145118447582
188.5376075215043   0.014191557103354365   0.015019433433100868   0.014608970803272855
189.5378075615123   0.014041486783742828   0.014850305722454925   0.014448838754095994
190.5380076015203   0.013891492365421034   0.014680996827089024   0.014288846350261031
191.5382076415283   0.013741580316082518   0.014511567052732037   0.014129090507067314
192.53840768153628   0.01359180619055631   0.014342165570900768   0.013969654392963769
193.5386077215443   0.013442253103609317   0.014172991601637938   0.013810614490723168
194.5388077615523   0.0132930068964544   0.01400425027544764   0.013652048177251025
195.5390078015603   0.01314415597601276   0.013836152353713403   0.013494033801154066
196.5392078415683   0.012995791363057231   0.01366891429373083   0.01333665069412953
197.5394078815763   0.012848004404964981   0.013502711491360288   0.013179973483968693
198.53960792158432   0.012700881936759275   0.013337579674500697   0.013024060356787904
199.53980796159232   0.012554511904339101   0.01317352569143747   0.012868966928935225
200.5400080016003   0.012408984728975055   0.0130105538695209   0.012714749512814745
201.5402080416083   0.012264393349107054   0.012848665964823425   0.01256146512686887
202.5404080816163   0.01212083185228627   0.01268786083838169   0.01240917135626876
203.5406081216243   0.011978357684416404   0.012528127331345822   0.012257922372046596
204.54080816163233   0.011836985964244161   0.012369444221009248   0.012107768415596293
205.54100820164032   0.011696729261838183   0.01221178840499942   0.011958760058282432
206.54120824164832   0.011557599779030078   0.01205513533599464   0.011810948441838748
207.54140828165632   0.011419609349591952   0.01189945902280996   0.011664385287027304
208.5416083216643   0.011282774497324455   0.011744746238894502   0.011519116693721354
209.54180836167234   0.011147142668643854   0.011591069906579064   0.011375151427458707
210.54200840168033   0.011012774166542474   0.011438537674456739   0.011232484181123171
211.54220844168833   0.01087973081210984   0.011287259950854663   0.01109110970401031
212.54240848169633   0.010748075919198257   0.011137349854366133   0.010951022825302192
213.54260852170432   0.010617874135000049   0.010988922788549321   0.010812218617432718
214.54280856171232   0.010489178169547494   0.010842059396590668   0.010674706431601576
215.54300860172035   0.010362017941069591   0.010696775952093333   0.010538520701225544
216.54320864172834   0.010236420968745448   0.010553082006357304   0.010403698692367624
217.54340868173634   0.010112414708205772   0.01041098693975858   0.010270278001003875
218.54360872174433   0.009990026557652847   0.010270499962079798   0.010138296558739022
219.54380876175233   0.009869272557059484   0.01013162962973014   0.010007790965974548
220.54400880176036   0.009750066904485407   0.009994379797801746   0.00987878311375685
221.54420884176835   0.009632268737484684   0.009858751108659277   0.00975128711379388
222.54440888177635   0.009515734858192994   0.009724743109178804   0.00962531710101335
223.54460892178435   0.009400320212951454   0.009592354269308946   0.009500887305495136
224.54480896179234   0.00928587809811036   0.009461582536043463   0.00937801202150499
225.54500900180034   0.00917229421547014   0.009332516247075885   0.009256700413102304
226.54520904180836   0.009059525753075922   0.009205436580764965   0.009136950679036146
