#w    R(w)_min   R(w)_max   R(w)_avg 
0.5   -3.3524211135931536e-06   -3.2834312153442126e-06   -3.223754524749716e-06
1.5002000400080016   -4.678583688374325e-06   -5.103919420602669e-06   -4.67423904802192e-06
2.500400080016003   -5.277020448930237e-06   -5.820132036961624e-06   -5.2800066186060575e-06
3.5006001200240044   -4.701564263776504e-06   -4.713461775508599e-06   -4.505289349619782e-06
4.500800160032006   -2.5047218987711112e-06   -1.0644708206121219e-06   -1.8135058880739873e-06
5.501000200040008   1.7548104266127773e-06   5.834436075718674e-06   3.323600372218189e-06
6.501200240048009   8.184435890987725e-06   1.6126411530347137e-05   1.1027446879172894e-05
7.501400280056011   1.6428176523605912e-05   2.9173407362903585e-05   2.085599854128798e-05
8.501600320064012   2.609237341067159e-05   4.427534666521707e-05   3.23221581623162e-05
9.501800360072014   3.6779255798884795e-05   6.072680135162446e-05   4.4934626838675916e-05
10.502000400080016   4.8086968608957656e-05   7.781704730405368e-05   5.8197942130569995e-05
11.502200440088018   5.960960026007432e-05   9.483012022022617e-05   7.1612516697684e-05
12.502400480096018   7.096567658613335e-05   0.00011109058654072899   8.470845995958468e-05
13.50260052010402   8.220188694552147e-05   0.00012661120874778492   9.752435888236053e-05
14.502800560112021   9.370111585593795e-05   0.00014194268926983673   0.00011049683387320376
15.503000600120023   0.0001058586088289827   0.0001576526391582798   0.00012407572586358367
16.503200640128025   0.00011907324340994943   0.00017431146363893263   0.00013871368743204792
17.503400680136025   0.00013374752502282207   0.00019249226939104671   0.00015486613348806815
18.50360072014403   0.00015028758263500158   0.00021277077048023456   0.0001729911911903014
19.50380076015203   0.00016908091309188737   0.00023567392298606225   0.00019351556157351147
20.504000800160032   0.0001903841748545623   0.00026142350946176254   0.0002166637440419688
21.504200840168032   0.00021440612336277187   0.0002901322043495697   0.00024258770364649217
22.504400880176036   0.00024135719626364638   0.00032191892961401253   0.00027144341387878016
23.504600920184036   0.00027144961127831106   0.0003569092106304259   0.0003033910754579638
24.504800960192036   0.0003048973802856753   0.00039523533991602157   0.0003385952072360082
25.50500100020004   0.0003419163259254796   0.000437036591362802   0.00037722480504991085
26.50520104020804   0.000382724773208654   0.0004824719579495993   0.00041947138616749445
27.505401080216043   0.0004275449006208991   0.0005317338012188158   0.00046557196624398317
28.505601120224043   0.0004766019048659299   0.0005850180436402108   0.0005157709144277192
29.505801160232046   0.0005301238457933248   0.0006425194622488911   0.0005703136796487116
30.506001200240046   0.000588341677107242   0.000704431635626337   0.0006294467773347534
31.50620124024805   0.0006514892773138045   0.0007709468899308037   0.000693417775765964
32.50640128025605   0.0007198042838040885   0.0008422571355113407   0.0007624739238781258
33.50660132026405   0.0007935422421031199   0.0009185708689783779   0.0008368381909903132
34.50680136027205   0.0008729739662956883   0.0010001156247408701   0.0009167135569288518
35.50700140028005   0.0009583721032621166   0.0010871251615066028   0.0010023058030542054
36.50720144028806   0.001050010722478581   0.0011798390137514065   0.0010938243899577345
37.50740148029606   0.001148165390333999   0.0012785025453920873   0.0011914825197268633
38.50760152030406   0.0012531132453537227   0.0013833670043244908   0.0012954971990240408
39.50780156031206   0.0013651064374874226   0.0014946387394191407   0.001406080292590912
40.508001600320064   0.001484277935832756   0.0016122913016294934   0.0015234054683422372
41.50820164032806   0.0016107336891877982   0.0017362259359991613   0.0016476370525812945
42.508401680336064   0.0017445889527742332   0.0018663385689082338   0.0017789419852613953
43.50860172034407   0.0018859682869832657   0.002002519949723038   0.001917489882573056
44.50880176035207   0.002035005549241596   0.002144655779677899   0.0020634530953929577
45.50900180036007   0.0021918395890346207   0.0022926387354238807   0.002217005283923959
46.50920184036807   0.002356455501800255   0.0024468104373954135   0.0023782678975147365
47.509401880376075   0.0025286306519524144   0.0026080991660098578   0.0025472938519154695
48.50960192038407   0.0027081241436798797   0.0027774825171684803   0.0027241329516182818
49.509801960392075   0.0028946903978714997   0.0029559493941040535   0.002908836532348909
50.51000200040008   0.0030880792540230696   0.0031444999447933428   0.003101457493088701
51.51020204040808   0.0032880360709339387   0.0033441455016662595   0.0033020503281927143
52.51040208041608   0.003494333761054715   0.003555679146357766   0.003510652032523982
53.51060212042408   0.0037069143002395476   0.0037786648780958223   0.0037271976490548856
54.510802160432085   0.003925777271102814   0.004012248974388722   0.003951587529456946
55.51100220044009   0.004150922781118436   0.004255571997657323   0.004183721618514538
56.511202240448085   0.004382351425819599   0.004507769126786731   0.004423499484518638
57.51140228045609   0.0046200642936221545   0.004767970187572931   0.00467082032450726
58.51160232046409   0.004864062047990131   0.0050353105789632795   0.004925580803810232
59.51180236047209   0.005114317098340851   0.0053092569470075575   0.0051876101811405805
60.51200240048009   0.0053707674474161   0.005589665193724002   0.005456657994654077
61.512202440488096   0.005633347270374333   0.005876411952969981   0.005732466896221331
62.5124024804961   0.0059019887253634025   0.006169372466946798   0.0060147770025189016
63.512602520504096   0.006176621909114973   0.006468420545710033   0.0063033258666711275
64.5128025605121   0.0064571748116593174   0.006773428525585091   0.006597848449092732
65.5130026005201   0.0067435251649192035   0.007084203732070809   0.00689805728313133
66.5132026405281   0.007035369010513504   0.007400314036266209   0.007203587818622245
67.5134026805361   0.007332358055108249   0.007721267498683246   0.007514054043101739
68.5136027205441   0.007634141425197739   0.008046567225760255   0.007829065500533201
69.51380276055211   0.007940365646195503   0.008375711305363697   0.008148227229576407
70.5140028005601   0.008250674620595429   0.008708192741461361   0.00847113970098199
71.51420284056812   0.00856470829926435   0.009043498841279567   0.008797396555215166
72.51440288057611   0.008882086993169289   0.009381103897983484   0.009126559093903957
73.51460292058411   0.009202414410314106   0.009720468091077093   0.009458164480194441
74.51480296059212   0.009525287762438436   0.01006104085433978   0.009791743819598646
75.51500300060012   0.00985029786514143   0.010402260771989216   0.010126822428912005
76.51520304060811   0.010177029030794479   0.010743555393915517   0.010462919748095784
77.51540308061612   0.010505058748766699   0.011084342197934896   0.01079954936227625
78.51560312062412   0.010833942411210608   0.011424110632535286   0.011136226698682316
79.51580316063212   0.011163201221839223   0.011762486188929966   0.01147247410570252
80.51600320064013   0.011492343024722665   0.012099115941689659   0.011807809039371125
81.51620324064812   0.011820864347256441   0.012433656548852604   0.0121417427571979
82.51640328065612   0.012148250197813888   0.012765774457440078   0.012473780217811195
83.51660332066413   0.01247397386177844   0.013095146109598393   0.012803419979499221
84.51680336067213   0.012797516195491847   0.01342142499641589   0.013130168794990326
85.51700340068014   0.013118423189032415   0.013744139200531354   0.013453583385385754
86.51720344068814   0.013436253642189889   0.014062772529019097   0.013773228179393335
87.51740348069613   0.013750561889923048   0.014376792436099869   0.01408866186402733
88.51760352070414   0.014060897732491355   0.014685649716469275   0.014399437287056718
89.51780356071214   0.014366806364709814   0.014988778195944031   0.014705101358365913
90.51800360072014   0.014667835382565678   0.015285612728149446   0.015005204267200868
91.51820364072815   0.014963588563126148   0.015575728622427152   0.01529936941425832
92.51840368073614   0.015253698580621134   0.015858772200018207   0.015587255155195169
93.51860372074414   0.015537797637212358   0.016134385115513305   0.01586851550145193
94.51880376075215   0.015815517214905928   0.01640220370668537   0.016142799735209847
95.51900380076015   0.016086488055347323   0.016661858932058397   0.01640975232584055
96.51920384076814   0.016350342443745638   0.016912985034485527   0.01666901670300141
97.51940388077615   0.01660675563921043   0.01715537945757259   0.016920305864188447
98.51960392078415   0.01685543914679629   0.01738898930850773   0.01716339625529576
99.51980396079216   0.01709610115118135   0.017613766301008228   0.017398063592920492
100.52000400080016   0.01732844501710585   0.01782966124857651   0.017624080411323222
101.52020404080815   0.01755216924005906   0.01803662397360939   0.017841216003487773
102.52040408081616   0.017766971717062215   0.018234600724956626   0.018049237457141445
103.52060412082416   0.017972764300467865   0.018423410294238288   0.018247963949237066
104.52080416083216   0.01816977628246149   0.0186026839333439   0.018437292638026553
105.52100420084017   0.01835826622502366   0.018772031296974676   0.018617125412908036
106.52120424084816   0.01853849722744669   0.018931054687763592   0.01878736260339563
107.52140428085616   0.01871073686183201   0.019079349084557412   0.018947902947896045
108.52160432086417   0.018875254527607188   0.019216504547950132   0.019098643761958085
109.52180436087217   0.01903186507325595   0.019342526842201366   0.019239516273400824
110.52200440088018   0.019179399798526193   0.019458326220405008   0.01937052698257783
111.52220444088817   0.019316557155422544   0.019564934706084513   0.019491692167035342
112.52240448089617   0.019442029234005984   0.019663389607009887   0.019603028110693282
113.52260452090418   0.019554501760386745   0.019754733503348484   0.019704551100862226
114.52280456091218   0.01965265456280125   0.01984001393156003   0.01979627744335208
115.52300460092017   0.019735679590185136   0.019919946414794443   0.019878243409796725
116.52320464092818   0.01980427482317358   0.019994268889265438   0.019950543885750252
117.52340468093618   0.01985941208470284   0.020062544563684954   0.02001328545358616
118.52360472094418   0.019902064346512153   0.020124339463217747   0.020066575964852548
119.52380476095219   0.019933205793100355   0.020179222408480482   0.020110524561059342
120.52400480096018   0.019953811881731218   0.020226764996663683   0.020145241695182444
121.52420484096818   0.019964746953610547   0.020266582274943032   0.02017084895703152
122.52440488097619   0.019966472777487154   0.020298437405656292   0.02018750487457524
123.52460492098419   0.019959363870546816   0.020322126275596007   0.02019537805251603
124.5248049609922   0.019943798798369883   0.02033744435012047   0.020194639330343322
125.5250050010002   0.019920160193353475   0.020344186734418613   0.020185461822002107
126.52520504100819   0.019888834774062638   0.020342148234783954   0.020168020956112784
127.5254050810162   0.019850174842216323   0.020331204165674285   0.020142498127431893
128.5256051210242   0.019804381321775304   0.020311555420620034   0.020109091756792017
129.5258051610322   0.01975161856108877   0.020283487644820866   0.020068006675305762
130.5260052010402   0.01969205311240006   0.020247290062588248   0.02001945055898425
131.52620524104822   0.019625853786141068   0.020203255525569994   0.019963633980629666
132.5264052810562   0.019553191705781944   0.020151680561833023   0.01990077046242154
133.5266053210642   0.01947425277360361   0.020092842282356707   0.01983107589445823
134.5268053610722   0.019389275865063994   0.020026927502818825   0.019754766648432166
135.5270054010802   0.019298515951191707   0.01995410201428777   0.01967206154048457
136.5272054410882   0.019202231539119454   0.01987453421624568   0.01958318253642891
137.52740548109622   0.019100684729264693   0.019788395174597316   0.019488354809942807
138.52760552110422   0.018994141272773993   0.019695858680818783   0.019387806801449553
139.52780556111222   0.018882844162752717   0.01959712274379516   0.01928176630377209
140.5280056011202   0.018766942403758518   0.019492467245748456   0.019170449766606704
141.5282056411282   0.018646565478519405   0.01938219352960648   0.019054073442526562
142.52840568113623   0.01852184572658546   0.01926660635326042   0.018932856785692988
143.52860572114423   0.01839291840344044   0.019146013947515278   0.018807022511257033
144.52880576115223   0.01825992174800657   0.01902072805803971   0.018676796651221454
145.52900580116022   0.018123009560493186   0.018891036522724468   0.01854240153906994
146.52920584116822   0.017982376658799624   0.01875714709710354   0.018404041275868036
147.52940588117622   0.01783822798849101   0.018619254758912754   0.018261918934869552
148.52960592118424   0.017690771479576786   0.01847755748538063   0.01811624064609782
149.52980596119224   0.017540218098675602   0.018332256312333067   0.0179672156529344
150.53000600120023   0.017386781900126422   0.01818355531243523   0.017815056324933957
151.53020604120823   0.01723067961275434   0.01803164214614708   0.01765996755057543
152.53040608121623   0.017072129834857327   0.0178766625879309   0.01750213271009261
153.53060612122422   0.016911353700191645   0.01771875889333155   0.01734173451933361
154.53080616123225   0.01674857504543718   0.017558076083984384   0.01717895847269849
155.53100620124025   0.016584020454537097   0.01739476200392234   0.0170139928942448
156.53120624124824   0.016417918732237566   0.017228967500746404   0.016847028768100444
157.53140628125624   0.016250463843367088   0.017060854465114243   0.016678245378333734
158.53160632126423   0.016081791895502788   0.016890600427135423   0.01650780120677411
159.53180636127226   0.015912035826657067   0.016718386454921377   0.01633585502021316
160.53200640128026   0.015741330864682917   0.016544396010320567   0.016162568007970814
161.53220644128825   0.015569814568886951   0.016368814993342286   0.015988103826007564
162.53240648129625   0.01539762643535053   0.016191830907858175   0.01581262789851459
163.53260652130425   0.015224897374294489   0.016013611758444724   0.015636289542470056
164.53280656131224   0.015051748882400759   0.01583430486469272   0.015459220760851074
165.53300660132027   0.014878303807924414   0.015654058729829605   0.015281554633573573
166.53320664132826   0.0147046869185217   0.015473024163533664   0.015103426265680554
167.53340668133626   0.014531024934548303   0.015291354323429495   0.01492497282377316
168.53360672134426   0.014357444485884548   0.015109201696907009   0.014746331691752382
169.53380676135225   0.01418405074046946   0.014926686398977863   0.014567621099649956
170.53400680136028   0.014010935750920744   0.014743907812627383   0.014388947625253194
171.53420684136827   0.013838192873573544   0.014560965617011734   0.014210419238971326
172.53440688137627   0.013665917024560317   0.014377960139310173   0.01403214553953996
173.53460692138427   0.013494204707263476   0.014194992370883647   0.013854237782844232
174.53480696139226   0.013323150053141658   0.014012166645472546   0.013676804880337805
175.53500700140026   0.013152827047868201   0.013829602976899337   0.013499935465661637
176.53520704140828   0.012983303480230128   0.013647428712392147   0.013323712072225111
177.53540708141628   0.012814648163709566   0.013465773934151264   0.013148218451498262
178.53560712142428   0.012646930958904203   0.013284771499616424   0.012973539599906585
179.53580716143227   0.012480222783136763   0.01310455705323025   0.012799761763551847
180.53600720144027   0.012314592491850698   0.012925255235837783   0.012626965345037423
181.5362072414483   0.012150102170139218   0.012746957668709013   0.012455213718899724
182.5364072814563   0.011986814071862847   0.012569751935554372   0.012284568316206779
183.5366073214643   0.01182479191642086   0.012393727062862334   0.012115091462551452
184.53680736147228   0.011664100915800033   0.0122189735438085   0.011946846393167823
185.53700740148028   0.011504806610005906   0.01204558214272836   0.011779896931694069
186.53720744148828   0.011346938097043239   0.011873606329318229   0.011614297191172887
187.5374074814963   0.011190479287399635   0.011703053632542315   0.01145008947566654
188.5376075215043   0.0110354095740786   0.011533927412186964   0.011287315954613434
189.5378075615123   0.01088170630338997   0.011366229405015471   0.011126019386231735
190.5380076015203   0.010729344732009198   0.011199959695269034   0.01096624312699582
191.5382076415283   0.010578302297276358   0.011035124561709683   0.01080802985336992
192.53840768153628   0.010428592622569248   0.010871798236478967   0.010651411604318152
193.5386077215443   0.01028024971085232   0.010710093021801332   0.010496415049269526
194.5388077615523   0.010133309481487694   0.010550125310186982   0.0103430671549121
195.5390078015603   0.009987809650117729   0.010392015364165695   0.010191395237363196
196.5392078415683   0.00984378976573956   0.010235887360755607   0.010041426965052155
197.5394078815763   0.009701292152407986   0.01008183264310846   0.009893186688564697
198.53960792158432   0.009560363650023279   0.009929832232030625   0.009746687860667777
199.53980796159232   0.009421053211577903   0.009779843879485805   0.009601941958498077
200.5400080016003   0.00928341138576309   0.009631822773828059   0.009458960581581362
201.5402080416083   0.009147490342447617   0.009485721492353934   0.009317755452721902
202.5404080816163   0.009013342719002074   0.009341490353629009   0.009178338372731664
203.5406081216243   0.008880990017229768   0.009199088188979774   0.009040719982741549
204.54080816163233   0.008750417883166684   0.009058484287375462   0.008904909577104218
205.54100820164032   0.008621609384663552   0.008919647254399565   0.008770916404858402
206.54120824164832   0.00849454682833441   0.008782544389584743   0.008638749740634697
207.54140828165632   0.008369211752648344   0.008647141678557024   0.008508418884185874
208.5416083216643   0.00824558993469926   0.008513412493832985   0.008379929165292671
209.54180836167234   0.008123697317167855   0.008381382657318753   0.008253261530734149
210.54200840168033   0.008003561936424953   0.008251099112952399   0.008128387497843106
211.54220844168833   0.007885212647011097   0.00812261036740406   0.00800527823689955
212.54240848169633   0.007768679092294063   0.007995966455069732   0.007883904579266238
213.54260852170432   0.0076539914367282635   0.007871218646620552   0.007764237150870079
214.54280856171232   0.007541158283724351   0.00774839452021086   0.0076462584062649405
215.54300860172035   0.00743014908224153   0.007627478016670249   0.00752997191424324
216.54320864172834   0.007320928516277921   0.007508448198906059   0.0074153832877496325
217.54340868173634   0.0072134604046818545   0.007391283652471179   0.007302498031285109
218.54360872174433   0.007107707694748018   0.00727596247981465   0.007191321538579157
219.54380876175233   0.007003632098399411   0.007162459645627866   0.007081858138842884
220.54400880176036   0.006901191220326072   0.007050725744671788   0.0069741034833515755
221.54420884176835   0.0068003400134648   0.00694069787679492   0.006868048485854846
222.54440888177635   0.006701032436859416   0.006832311973240126   0.006763683755705025
223.54460892178435   0.006603221467446971   0.006725502904320955   0.006660999632588858
224.54480896179234   0.006506859104079178   0.00662020495872538   0.006559986166257632
225.54500900180034   0.006411897681959985   0.006516431084850934   0.006460630752378703
226.54520904180836   0.006318291783918315   0.0064143619813934885   0.006362915485673153
