#w    R(w)_min   R(w)_max   R(w)_avg 
0.5   -1.9511576879552283e-06   -1.9485557597367725e-06   -1.964209804441711e-06
1.5002000400080016   -2.6067110313616927e-06   -2.950127185860437e-06   -2.741101889165502e-06
2.500400080016003   -2.8007069704933728e-06   -3.171918672531375e-06   -2.9306336368841724e-06
3.5006001200240044   -2.2701050954800682e-06   -2.135876922212679e-06   -2.1852017923891485e-06
4.500800160032006   -7.500148608967821e-07   6.380858776977912e-07   -1.553941707347752e-07
5.501000200040008   2.022325471300625e-06   5.624128005659942e-06   3.5044604372058362e-06
6.501200240048009   6.134365517346509e-06   1.2943672016138327e-05   8.894670600189035e-06
7.501400280056011   1.142927786956671e-05   2.222878636253387e-05   1.5774658236653753e-05
8.501600320064012   1.773046409876994e-05   3.3073028205202707e-05   2.3876773708150638e-05
9.501800360072014   2.4859278375241793e-05   4.506699488290883e-05   3.293105201283309e-05
10.502000400080016   3.2635048095909994e-05   5.7798364336060065e-05   4.266524211292912e-05
11.502200440088018   4.0875094724612496e-05   7.085193603801566e-05   5.2804836606818454e-05
12.502400480096018   4.9411385989823585e-05   8.383920580661667e-05   6.309483162879147e-05
13.50260052010402   5.8326160799309635e-05   9.681640930827471e-05   7.360739765600197e-05
14.502800560112021   6.789726687345334e-05   0.00011018607470471268   8.46697557853781e-05
15.503000600120023   7.840860843268108e-05   0.00012435989662060946   9.661624655730444e-05
16.503200640128025   9.014501289524196e-05   0.00013974957131524478   0.0001097815973631051
17.503400680136025   0.0001033921987216901   0.00015676669592550418   0.00012450085770357693
18.50360072014403   0.00011843674273587781   0.00017582266623511356   0.0001411093334767468
19.50380076015203   0.00013555114516689012   0.00019728907778971403   0.00015991712623711083
20.504000800160032   0.00015491961579886497   0.000221301473027742   0.00018108295260401135
21.504200840168032   0.00017669578912778456   0.0002479133215521182   0.00020471315813076023
22.504400880176036   0.0002010364256089757   0.0002771855325637497   0.0002309192776529256
23.504600920184036   0.00022810154772359562   0.00030918680244036657   0.0002598182646249338
24.504800960192036   0.0002580545204222079   0.0003439938147787982   0.000291532625629047
25.50500100020004   0.00029106222013236993   0.000381691576642009   0.00032619067552910105
26.50520104020804   0.0003273189187884525   0.0004224093551555792   0.00036395874075137067
27.505401080216043   0.00036707805533834644   0.0004663650416618311   0.000405082470034519
28.505601120224043   0.0004106032995782031   0.0005137875005853024   0.0004498190413837562
29.505801160232046   0.0004581603869131872   0.000564903886635069   0.0004984259736791608
30.506001200240046   0.0005100171101370374   0.0006199395711105027   0.0005511610894674037
31.50620124024805   0.0005664433109857922   0.0006791180669894836   0.000608282477101827
32.50640128025605   0.0006277106325611588   0.0007426613155253635   0.0006700471970702218
33.50660132026405   0.0006940881464209526   0.0008107972941001039   0.0007366892963200857
34.50680136027205   0.0007658425200152634   0.000883763924996591   0.0008084244777959538
35.50700140028005   0.0008432418450474036   0.0009618050373328938   0.0008854714470212887
36.50720144028806   0.0009265558545064725   0.0010451702364092086   0.0009680527333145801
37.50740148029606   0.0010160560011274182   0.0011341149587705442   0.0010563947528303603
38.50760152030406   0.0011120155368212208   0.0012289005281701658   0.0011507278724369823
39.50780156031206   0.0012146842261067572   0.0013297432118543986   0.0012512764045428289
40.508001600320064   0.0013241986667829378   0.0014366257299855926   0.0013582216493999925
41.50820164032806   0.0014406700875295355   0.0015494582714642685   0.0014717341187812057
42.508401680336064   0.0015642189440404346   0.0016681456943359277   0.0015919868872201306
43.50860172034407   0.001694974915061321   0.0017925876650655098   0.001719155652734783
44.50880176035207   0.0018330768907764653   0.0019226787843092733   0.00185341879236565
45.50900180036007   0.0019786687020135543   0.0020583206470191936   0.0019949559872323606
46.50920184036807   0.002131741796530377   0.0021998652847829555   0.0021438966957897073
47.509401880376075   0.002292081811698259   0.0023482533896907725   0.0023003045169550738
48.50960192038407   0.0024594563988901853   0.00250447521455846   0.0024642402388450786
49.509801960392075   0.002633628683692771   0.002669532441316561   0.0026357663139137434
50.51000200040008   0.002814357369836308   0.0028444381201009282   0.002814946892784558
51.51020204040808   0.0030013968419281   0.003030216610663096   0.003001847858195639
52.51040208041608   0.0031945294471207794   0.0032276743851335126   0.0031965180868795927
53.51060212042408   0.003393708046536734   0.0034363902240894095   0.0033989065413415663
54.510802160432085   0.0035989436057518353   0.0036555257107405807   0.003608928230925264
55.51100220044009   0.003810247657265463   0.003884236808500627   0.003826497851174835
56.511202240448085   0.004027632264047965   0.0041216741934117646   0.004051529814383706
57.51140228045609   0.0042511100250450734   0.004366983285782809   0.0042839382554690645
58.51160232046409   0.004480693201784653   0.004619315202313263   0.00452363489625878
59.51180236047209   0.004716367198260104   0.004878153175181808   0.004770464890434838
60.51200240048009   0.004958084645300066   0.005143370722935314   0.005024194634355207
61.512202440488096   0.005205794501747596   0.005414862306525626   0.005284583785241454
62.5124024804961   0.0054594437761614064   0.005692521157010356   0.005551389564127315
63.512602520504096   0.0057189774821816315   0.005976239235940412   0.005824366728259355
64.5128025605121   0.0059843385930409354   0.006265907194662817   0.006103267542715839
65.5130026005201   0.006255420011468616   0.006561349826072132   0.006387821834187109
66.5132026405281   0.006531933481119299   0.006862148808344017   0.006677682024590683
67.5134026805361   0.006813546615747561   0.007167825157494885   0.006972479069720675
68.5136027205441   0.007099924552968027   0.007477894952897101   0.007271839575943274
69.51380276055211   0.007390729935244691   0.007791869274031771   0.007575385739307463
70.5140028005601   0.007685622889962422   0.008109254136414022   0.00788273528379854
71.51420284056812   0.007984259594724319   0.008429550356654781   0.008193499084627976
72.51440288057611   0.008286275304015444   0.008752251776587387   0.008507254333320953
73.51460292058411   0.008591287666088387   0.009076842454133927   0.00882355319182323
74.51480296059212   0.008898907677951274   0.009402796123241387   0.009141941832281196
75.51500300060012   0.009208739799343429   0.009729576016751309   0.009461960725668442
76.51520304060811   0.009520381842439958   0.010056634685273664   0.009783144554685935
77.51540308061612   0.00983342465252542   0.010383414680052843   0.010105022215730269
78.51560312062412   0.010147437125560717   0.010709410733400856   0.010427123042705284
79.51580316063212   0.010461954530064644   0.011034220394450057   0.010748980912323684
80.51600320064013   0.01077649910426297   0.011357459224387162   0.011070124653731122
81.51620324064812   0.011090582070485435   0.011678751859570851   0.011390076972190685
82.51640328065612   0.011403703437592099   0.011997732214751712   0.011708354349863179
83.51660332066413   0.011715351801773194   0.012314043686923272   0.012024466945494167
84.51680336067213   0.012025022267123812   0.012627317689159643   0.012337932252295304
85.51700340068014   0.012332269932745027   0.012937103908366292   0.012648314215848059
86.51720344068814   0.012636661262605169   0.013242918499582548   0.012955183691967158
87.51740348069613   0.012937758025870131   0.013544261575726224   0.013258105854493168
88.51760352070414   0.013235117225485524   0.013840616899401937   0.013556640098982747
89.51780356071214   0.013528291025864258   0.014131451572083151   0.013850339945319524
90.51800360072014   0.013816838442261054   0.014416232968482412   0.014138761816447203
91.51820364072815   0.014100414395910015   0.014694560304930993   0.014421531679210014
92.51840368073614   0.014378723426434223   0.014966099857540724   0.014698308626143488
93.51860372074414   0.014651470663332795   0.015230513831081859   0.014968747437732442
94.51880376075215   0.014918361439032633   0.015487459745368436   0.015232498213036705
95.51900380076015   0.015179101281774656   0.015736590374689646   0.015489206287506448
96.51920384076814   0.01543339393372479   0.01597756001068461   0.015738515859685814
97.51940388077615   0.01568090444591709   0.0162101403508926   0.01598013790116427
98.51960392078415   0.01592125942982539   0.016434210729564303   0.0162138443052333
99.51980396079216   0.016154078712495808   0.016649653003738024   0.016439406180490546
100.52000400080016   0.016378976484548103   0.01685634754834589   0.016656591491182413
101.52020404080815   0.016595561240204865   0.017054173175628996   0.016865164999681968
102.52040408081616   0.01680344085095616   0.017243005545900313   0.017064889273934344
103.52060412082416   0.017002477440925638   0.017422641946035596   0.017255577499549344
104.52080416083216   0.01719290994198069   0.017592763847945368   0.017437118685972332
105.52100420084017   0.017375011446489008   0.017753036799294318   0.01760940643462459
106.52120424084816   0.017549059825863342   0.01790311902915946   0.017772332821046177
107.52140428085616   0.01771533766987499   0.018042661465999123   0.017925788365026323
108.52160432086417   0.01787412958340968   0.018171310010122333   0.018069662198535875
109.52180436087217   0.01802525492880573   0.018289104485730526   0.01820387710748053
110.52200440088018   0.018167526221168424   0.018396942573622475   0.01832843055111593
111.52220444088817   0.018299620126697877   0.01849583777649961   0.018443329716712323
112.52240448089617   0.018420206966395694   0.018586808965944085   0.01854858183146252
113.52260452090418   0.018527950714696737   0.0186708803758898   0.01864419416057229
114.52280456091218   0.018621509467824787   0.018749081296749924   0.018730174023871574
115.52300460092017   0.01870005527553454   0.018822114550693197   0.018806549221846745
116.52320464092818   0.018764271481613127   0.01888972140070894   0.01887340759728584
117.52340468093618   0.01881511615393611   0.018951471532837733   0.018930848977246232
118.52360472094418   0.01885354842898718   0.019006937745453496   0.018978974493950397
119.52380476095219   0.018880528575618113   0.019055695931416965   0.019017886606193576
120.52400480096018   0.01889701805492075   0.019097325062265216   0.019047689121497065
121.52420484096818   0.018903869111146682   0.01913144502377453   0.019068497802314528
122.52440488097619   0.018901538667386995   0.019157813615803397   0.01908046819543972
123.52460492098419   0.018890398457218842   0.019176218629225122   0.019083766591399234
124.5248049609922   0.018870824770824194   0.01918644693489877   0.019078561550295844
125.5250050010002   0.018843198480281643   0.019188284537889615   0.01906502394152721
126.52520504100819   0.01880790506580713   0.019181516631673338   0.019043326984057196
127.5254050810162   0.018765297023753395   0.019166009906593433   0.01901365066989658
128.5256051210242   0.018715579442081118   0.01914196240108899   0.018976195153069066
129.5258051610322   0.0186589217327814   0.01910965853996965   0.01893116780709529
130.5260052010402   0.018595495446483687   0.019069386498846475   0.018878778879261378
131.52620524104822   0.01852547432468363   0.019021438254249737   0.01881924154202865
132.5264052810562   0.018449034352527986   0.018966109634612618   0.018752771945140696
133.5266053210642   0.018366363125145415   0.018903681569891872   0.018679589182302943
134.5268053610722   0.018277688519938485   0.01883436249771558   0.01859991507250148
135.5270054010802   0.018183251031404654   0.01875834461317248   0.01851397445805522
136.5272054410882   0.01808329435594521   0.01867582307604621   0.018421995346730297
137.52740548109622   0.017978065444873646   0.018586996071112916   0.01832420896904264
138.52760552110422   0.01786781455802232   0.01849206486926756   0.01822084983625848
139.52780556111222   0.017752787087819782   0.01839123784870072   0.018112152033702443
140.5280056011202   0.017633201379700536   0.01828474115249134   0.017998339079084588
141.5282056411282   0.01750927181512347   0.018172807503865483   0.017879634469733417
142.52840568113623   0.017381215791614724   0.018055672911832327   0.01775626490281261
143.52860572114423   0.017249253777228336   0.017933576731656374   0.017628460333610835
144.52880576115223   0.01711360936127951   0.017806761721277507   0.017496454030147303
145.52900580116022   0.01697450201223696   0.01767546613817983   0.017360475316376783
146.52920584116822   0.016832132114028713   0.017539907355783507   0.017220734543174625
147.52940588117622   0.01668669875022324   0.017400301197417214   0.017077440876520876
148.52960592118424   0.016538403915001238   0.017256866525070233   0.016930806518000115
149.52980596119224   0.016387452564564867   0.017109825296973184   0.01678104676022469
150.53000600120023   0.01623405261811993   0.01695940258635984   0.016628379995461396
151.53020604120823   0.016078402769081606   0.01680581715558476   0.016473016385554505
152.53040608121623   0.015920676413646515   0.016649268969385872   0.01631514289376273
153.53060612122422   0.015761045613932368   0.016489957715481608   0.01615494555021682
154.53080616123225   0.015599685041942214   0.01632808587117541   0.015992613124660014
155.53100620124025   0.015436772025895714   0.016163858755579057   0.015828337176451667
156.53120624124824   0.01527248635879332   0.015997484338333166   0.015662311866259077
157.53140628125624   0.015106994833202717   0.0158291573913247   0.015494718452396817
158.53160632126423   0.014940441478974338   0.015659049423235396   0.01532571548432756
159.53180636127226   0.014772970293165303   0.015487331923980585   0.015155461577659174
160.53200640128026   0.014604727535775158   0.015314178717494843   0.014984117717926756
161.53220644128825   0.014435861769803786   0.015139766005661973   0.014811847303729808
162.53240648129625   0.014266523120360274   0.014964271745155213   0.014638815393118095
163.53260652130425   0.014096844476346166   0.014787859622823795   0.014465169525614368
164.53280656131224   0.013926940245481766   0.014610678116674007   0.01429103844968866
165.53300660132027   0.013756925703002902   0.01443287708850076   0.014116551863616931
166.53320664132826   0.01358691798371644   0.014254608644607692   0.013941841429658812
167.53340668133626   0.013417036114843968   0.014076027176055888   0.013767040809652494
168.53360672134426   0.013247399210256161   0.01389728590415657   0.01359228371386771
169.53380676135225   0.013078107544913068   0.013718500714435497   0.01341768344183741
170.53400680136028   0.012909249932413103   0.013539763604483817   0.013243340825777092
171.53420684136827   0.012740916490446494   0.013361166746221736   0.013069358014990273
172.53440688137627   0.012573198870218297   0.013182802885134485   0.01289583872261019
173.53460692138427   0.012406190283506344   0.013004765355671907   0.01272288825371366
174.53480696139226   0.012239981143703761   0.012827150553908477   0.0125506093753881
175.53500700140026   0.012074639509911701   0.012650069364629937   0.012379083819933016
176.53520704140828   0.011910226433585459   0.012473639538437178   0.012208386922728375
177.53540708141628   0.011746803901687761   0.012297981464203998   0.012038595173330193
178.53560712142428   0.01158443485894918   0.012123218208784918   0.011869786241939238
179.53580716143227   0.011423183218895221   0.011949475527680026   0.01170203898346211
180.53600720144027   0.011263111648137501   0.011776867975694827   0.011535426326000912
181.5362072414483   0.01110427828946337   0.0116054767514784   0.011370004061396415
182.5364072814563   0.010946741798695828   0.011435378906210485   0.011205825971471005
183.5366073214643   0.010790562283721963   0.011266652864128696   0.011042946672978544
184.53680736147228   0.010635801331200548   0.01109937844588603   0.010881421632197604
185.53700740148028   0.010482520779944854   0.010933635686070151   0.010721306852045785
186.53720744148828   0.01033074406384856   0.010769467683384567   0.010562648844616484
187.5374074814963   0.010180447097574506   0.010606872036732289   0.010405482587040724
188.5376075215043   0.01003160109324242   0.010445842143266847   0.010249842886988722
189.5378075615123   0.00988417516204647   0.010286369715114442   0.010095765086754587
190.5380076015203   0.00973813627101152   0.01012844474933988   0.009943285072267025
191.5382076415283   0.00959345458955578   0.009972063336757932   0.009792438072143748
192.53840768153628   0.009450145781753688   0.009817289127396172   0.009643249299976283
193.5386077215443   0.009308250679722315   0.009664223597251958   0.009495738899090478
194.5388077615523   0.009167812055549724   0.00951297223280507   0.009349927265652959
195.5390078015603   0.009028874460903058   0.009363644311645129   0.009205835097579147
196.5392078415683   0.008891484260659626   0.00921635294802116   0.009063483397173801
197.5394078815763   0.008755686143637637   0.009071180933039664   0.008922890089603024
198.53960792158432   0.00862151579395753   0.008928108569840809   0.008784063035295744
199.53980796159232   0.008489008347909523   0.008787094415139689   0.008647008244816389
200.5400080016003   0.00835820041709409   0.008648094502525542   0.0085117318109926
201.5402080416083   0.008229130114612444   0.008511062293367346   0.008378239909442503
202.5404080816163   0.008101836104239332   0.008375948572509347   0.00824653877516305
203.5406081216243   0.007976331391041256   0.008242700112449429   0.008116634055567718
204.54080816163233   0.007852599289818948   0.008111260215321995   0.007988530690058239
205.54100820164032   0.007730620942838875   0.007981570602438209   0.007862233573941417
206.54120824164832   0.007610376822043112   0.007853571501278212   0.00773774759441668
207.54140828165632   0.007491846721250491   0.007727201639306049   0.007615077629786857
208.5416083216643   0.0073750141192582015   0.007602408948000864   0.007494224690314777
209.54180836167234   0.007259888771072803   0.007479205856525889   0.007375166200351378
210.54200840168033   0.00714649092794658   0.0073576304738372025   0.007257870439318711
211.54220844168833   0.007034841500206331   0.007237722474889584   0.0071423053133210235
212.54240848169633   0.006924962028982812   0.007119523056829961   0.007028438362447069
213.54260852170432   0.006816874536646136   0.00700307477840516   0.006916236898270399
214.54280856171232   0.006710589635710234   0.006888407751830902   0.006805680401609003
215.54300860172035   0.006606096992393872   0.006775528161821947   0.006696770088258191
216.54320864172834   0.006503383774273573   0.0066644392990198595   0.006589509261934093
217.54340868173634   0.006402436747800202   0.006555143965926197   0.006483901096437734
218.54360872174433   0.006303242277390526   0.006447644469751686   0.00637994863310413
219.54380876175233   0.006205783809276934   0.006341936545656261   0.00627765388977915
220.54400880176036   0.0061100216014269276   0.0062379608754064   0.0061770107501834485
221.54420884176835   0.006015902731727229   0.006135628473233617   0.006078008641479997
222.54440888177635   0.005923372714026524   0.006034849058941637   0.00598063667309785
223.54460892178435   0.005832375594978147   0.005935531312562879   0.00588488366860811
224.54480896179234   0.005742853959126811   0.005837583411486468   0.005790738146566387
225.54500900180034   0.005654751477977009   0.0057410015352714104   0.00569818616718874
226.54520904180836   0.005568016367386922   0.00564596921841358   0.00560720892170276
