#w    R(w)_min   R(w)_max   R(w)_avg 
0.5   -1.9405292645062417e-06   -1.947494346050014e-06   -1.8785617094739963e-06
1.5002000400080016   -2.637720613933028e-06   -3.29601524422519e-06   -2.8119961358164385e-06
2.500400080016003   -2.8531360060830882e-06   -3.693097996842347e-06   -3.0772037311170274e-06
3.5006001200240044   -2.3099168681920955e-06   -2.546143350884106e-06   -2.2720686272165737e-06
4.500800160032006   -7.292623606417161e-07   7.399355021957271e-07   7.564044236485598e-09
5.501000200040008   2.165311516518037e-06   6.7525402575957445e-06   4.161292284288166e-06
6.501200240048009   6.4625592775934645e-06   1.562834351268819e-05   1.0296946666381577e-05
7.501400280056011   1.198967111759425e-05   2.687869434205257e-05   1.81170655907606e-05
8.501600320064012   1.855263172678978e-05   3.9965512216962504e-05   2.7291938603817587e-05
9.501800360072014   2.595519285659644e-05   5.434669588990037e-05   3.748903038048319e-05
10.502000400080016   3.399889265366564e-05   6.947616935152544e-05   4.83730112825509e-05
11.502200440088018   4.2483075191664553e-05   8.480392837157574e-05   5.960578828132504e-05
12.502400480096018   5.122227571693278e-05   9.981263854295531e-05   7.087147307004895e-05
13.50260052010402   6.0292308564998976e-05   0.00011453514889335184   8.222954286786747e-05
14.502800560112021   6.997341103021754e-05   0.00012943316301363547   9.403238477162924e-05
15.503000600120023   8.055240517457318e-05   0.00014498020296134547   0.00010664089387013818
16.503200640128025   9.231734664302595e-05   0.0001616502879923912   0.00012041675969737853
17.503400680136025   0.00010555749903276748   0.0001799178291605796   0.00013572240339478875
18.50360072014403   0.00012056330784384978   0.0002002575223857914   0.0001529209139374004
19.50380076015203   0.0001376096601256157   0.0002230936336214281   0.0001723453335650439
20.504000800160032   0.00015687239166711775   0.0002485477571307339   0.00019414588761527382
21.504200840168032   0.00017849242364725273   0.00027663430601511553   0.00021840838616283547
22.504400880176036   0.000202613426758311   0.00030737480058706877   0.00024522344923029666
23.504600920184036   0.0002293819548825884   0.0003407982601311154   0.00027468675091208995
24.504800960192036   0.00025894751622912866   0.0003769414051695002   0.00030689914878169645
25.50500100020004   0.0002914627494868648   0.0004158490194945716   0.0003419669404338357
26.50520104020804   0.0003271118624731891   0.0004576163195258152   0.0003800358774843772
27.505401080216043   0.0003661488182978702   0.000502442083443763   0.00042133509266899574
28.505601120224043   0.00040883943367853463   0.0005505380181437513   0.00046610582006566134
29.505801160232046   0.0004554516906909079   0.0006021138938005064   0.0005145896086722789
30.506001200240046   0.000506255733191043   0.0006573774702717855   0.000567028287971849
31.50620124024805   0.0005615238630962072   0.0007165344222954221   0.0006236639328897557
32.50640128025605   0.0006215285682128075   0.0007797883256576888   0.0006847375595260806
33.50660132026405   0.0006865071225338154   0.0008473429096683865   0.0007504668708704282
34.50680136027205   0.0007566650749021839   0.0009194066902691232   0.000821050835290519
35.50700140028005   0.000832208192407165   0.0009961938757381266   0.0008966912047536504
36.50720144028806   0.0009133436987068309   0.001077924414254209   0.000977593342110407
37.50740148029606   0.0010002803481901398   0.0011648240479512335   0.0010639662829767375
38.50760152030406   0.0010932285010003995   0.0012571243678308845   0.001156022798433838
39.50780156031206   0.0011924128445644248   0.0013550183203264014   0.0012539710020575343
40.508001600320064   0.001298120941348389   0.001458495016599613   0.0013579832755190664
41.50820164032806   0.0014106666541778678   0.001567479337022714   0.0014682232464390541
42.508401680336064   0.0015303740133087438   0.0016818904781741436   0.0015848569921955522
43.50860172034407   0.0016575771986688005   0.001801642099739359   0.0017080531021782341
44.50880176035207   0.0017926205200466119   0.001926642456145435   0.0018379827338202686
45.50900180036007   0.0019358478753927274   0.0020568053725566844   0.001974818403767659
46.50920184036807   0.00208721408772043   0.002192453800843769   0.0021186886886194354
47.509401880376075   0.002246162033787779   0.002334446582110681   0.0022696644518208848
48.50960192038407   0.002412093876735473   0.002483688620710881   0.002427814258289488
49.509801960392075   0.0025844045001551966   0.002641096209606983   0.002593208312008369
50.51000200040008   0.002762481630232018   0.0028075969678910745   0.0027659184897371844
51.51020204040808   0.0029457059560451075   0.0029841297805926043   0.0029460183748371486
52.51040208041608   0.003133552641109488   0.0031714665933101974   0.0031335664635664677
53.51060212042408   0.0033260386335009903   0.003369426817962684   0.0033285318212943225
54.510802160432085   0.0035233649026558344   0.003577506395148549   0.0035308531564711156
55.51100220044009   0.003725734483935792   0.003795197583298241   0.0037404689666356698
56.511202240448085   0.003933352341206171   0.0040219892156187825   0.003957317567328384
57.51140228045609   0.0041464253621795845   0.004257366723408352   0.004181337098896231
58.51160232046409   0.0043651594565830626   0.004500814956257219   0.004412463536519087
59.51180236047209   0.004589672677064301   0.00475190175976418   0.004650570867726542
60.51200240048009   0.004819978429662201   0.0050102926316806665   0.004895459698228079
61.512202440488096   0.005056082777149035   0.005275655979898515   0.00514692438690749
62.5124024804961   0.0052979902519887856   0.005547657424750438   0.005404757057654968
63.512602520504096   0.005545703813815205   0.005825959773371412   0.005668747573821095
64.5128025605121   0.005799224806104587   0.006110222993314971   0.005938683511933747
65.5130026005201   0.006058501836040329   0.006400097932299264   0.006214330421615838
66.5132026405281   0.006323291133258895   0.006695208759537677   0.006495377431264052
67.5134026805361   0.00659330222810969   0.00699517002320291   0.006781492627855858
68.5136027205441   0.006868242264728143   0.007299591915005165   0.007072340002169878
69.51380276055211   0.007147815980376626   0.007608080203628813   0.007367579390790716
70.5140028005601   0.007431725683904686   0.007920236167431743   0.007666866417306117
71.51420284056812   0.007719669999566461   0.008235652371943349   0.007969849745351459
72.51440288057611   0.008011329157136772   0.008553864013092672   0.008276139950003031
73.51460292058411   0.00830636823444597   0.008874362747798167   0.008585319652085107
74.51480296059212   0.008604446834008688   0.009196630321873475   0.008896965667614163
75.51500300060012   0.008905219189839343   0.009520139081322217   0.009210649360060476
76.51520304060811   0.009208334077567014   0.009844351814943506   0.009525936556293992
77.51540308061612   0.00951343442073587   0.01016872227961787   0.009842387479300952
78.51560312062412   0.009820135684247664   0.010492744132389634   0.010159557911721198
79.51580316063212   0.010128009833299565   0.010815989784228605   0.010476999953318222
80.51600320064013   0.01043661597805839   0.01113804265328909   0.010794260062759893
81.51620324064812   0.010745503442191346   0.011458490010274162   0.011110878769093453
82.51640328065612   0.011054211588015552   0.011776923073357141   0.011426390574858235
83.51660332066413   0.011362269640154537   0.012092937102940671   0.011740323858129153
84.51680336067213   0.011669205301801556   0.01240612784417764   0.012052211542736519
85.51700340068014   0.0119745704637657   0.012716077216407383   0.012361621737712918
86.51720344068814   0.012277917231802637   0.013022356977254077   0.012668126839870337
87.51740348069613   0.012578789994875328   0.01332453097522407   0.012971293668081366
88.51760352070414   0.012876725289555425   0.013622155006501505   0.013270683367940536
89.51780356071214   0.01317125166306867   0.013914776670442223   0.013565851315361357
90.51800360072014   0.013461902352719912   0.014201942570674995   0.013856354847844032
91.51820364072815   0.013748313225558435   0.014483253099251454   0.014141812047139678
92.51840368073614   0.014030174914748365   0.014758331396337983   0.014421869675409104
93.51860372074414   0.01430718008809364   0.015026792072466875   0.014696170165238106
94.51880376075215   0.014579023073035479   0.015288240816312913   0.014964351283827731
95.51900380076015   0.014845399893314695   0.015542274240042033   0.015226046050289328
96.51920384076814   0.015106007074997463   0.015788487337750734   0.015480886077618255
97.51940388077615   0.015360518253828923   0.016026613550774383   0.015728564282983484
98.51960392078415   0.01560858263185771   0.016256515402689978   0.015968829517277412
99.51980396079216   0.015849843992887497   0.016478058935990792   0.016201429595284828
100.52000400080016   0.01608394135802946   0.016691108955700217   0.01642610911072438
101.52020404080815   0.016310508899529876   0.016895528981820285   0.016642609376729428
102.52040408081616   0.01652917914043021   0.01709117966406409   0.016850669402975884
103.52060412082416   0.016739745988812216   0.017277842273346077   0.01705007730259319
104.52080416083216   0.01694224279904498   0.017455181268079916   0.017240694830995888
105.52100420084017   0.017136722845660732   0.017622846485572715   0.017422388045404635
106.52120424084816   0.017323240516057933   0.017780481898433283   0.017595021345955763
107.52140428085616   0.017501851278180453   0.017927725603886682   0.017758457442961225
108.52160432086417   0.017672610273389126   0.01806421168468214   0.01791255752240252
109.52180436087217   0.017835329631006563   0.018189901132414553   0.018057216364491382
110.52200440088018   0.01798929934575845   0.018305465244732633   0.01819240344026534
111.52220444088817   0.018133742138490262   0.018411668429306347   0.018318097800296203
112.52240448089617   0.01826788087553311   0.018509276470183102   0.018434278360055373
113.52260452090418   0.018390938525372925   0.018599056546619138   0.018540923894648294
114.52280456091218   0.01850213823943527   0.018681777155002948   0.01863801305305689
115.52300460092017   0.01860083982517976   0.01875810121525618   0.018725545912850215
116.52320464092818   0.018686797922804615   0.01882838448300562   0.018803585710729348
117.52340468093618   0.018759832030924774   0.018892934852298152   0.018872208088576523
118.52360472094418   0.018819754144482205   0.018952069144437696   0.018931489815182594
119.52380476095219   0.01886636884406092   0.019006113063846405   0.01898150880452167
120.52400480096018   0.018899473394155195   0.01905540114655205   0.01902234413478355
121.52420484096818   0.018919117304132916   0.019100046123575347   0.019054087929286014
122.52440488097619   0.01892628308375689   0.019139334247524207   0.019076876515520418
123.52460492098419   0.01892217192918331   0.019172360616825906   0.01909085783155351
124.5248049609922   0.018907994828611892   0.019198214949035793   0.019096181916168152
125.5250050010002   0.01888497257617195   0.019215981638943835   0.01909300094590302
126.52520504100819   0.018854335787742763   0.019224739815817814   0.01908146927260932
127.5254050810162   0.018817107200418307   0.01922379080861965   0.01906174910338417
128.5256051210242   0.018773441242804046   0.0192133480523537   0.019034027702710832
129.5258051610322   0.01872327388823418   0.0191938584059124   0.01899850068248791
130.5260052010402   0.018666541750116457   0.019165773404652496   0.018955366386481404
131.52620524104822   0.018603182134794793   0.01912954930598265   0.018904825939774255
132.5264052810562   0.0185331330946894   0.01908564713598441   0.018847083298884414
133.5266053210642   0.01845639226044637   0.019034476834657664   0.018782346368960513
134.5268053610722   0.01837319680936901   0.018976226183734294   0.01871083031116271
135.5270054010802   0.018283847322787396   0.01891102841492386   0.01863275438485658
136.5272054410882   0.018188647902602266   0.01883901926699587   0.01854834091348419
137.52740548109622   0.01808790622358252   0.01876033704426948   0.018457815340778828
138.52760552110422   0.017981933586047525   0.018675122676103655   0.01836140628767975
139.52780556111222   0.017871022884148224   0.018583536851901273   0.018259342933273928
140.5280056011202   0.01775538913553482   0.018485805981864983   0.018151847804741054
141.5282056411282   0.017635231562493532   0.01838217410187895   0.018039144263304135
142.52840568113623   0.017510752262564308   0.01827288851261247   0.017921458805907658
143.52860572114423   0.017382156263176986   0.018158199838934394   0.017799021123102953
144.52880576115223   0.017249651575682624   0.018038362083846654   0.017672064153769262
145.52900580116022   0.017113447075589223   0.01791362240764331   0.01754081769413053
146.52920584116822   0.01697374802033935   0.017784200012035525   0.01740549514502044
147.52940588117622   0.016830761300732973   0.017650311155412397   0.017266309186501523
148.52960592118424   0.016684696722700888   0.017512175068012618   0.01712347550375013
149.52980596119224   0.016535767059210445   0.017370014009425616   0.016977212842652595
150.53000600120023   0.016384188047083196   0.017224053296840663   0.016827743021807725
151.53020604120823   0.016230165085727815   0.017074514167713564   0.016675280370017108
152.53040608121623   0.016073875720690932   0.01692160428518808   0.016520017769037
153.53060612122422   0.015915495806392274   0.01676553176108071   0.016362147420312324
154.53080616123225   0.015755203807448822   0.016606507491900842   0.01620186427409979
155.53100620124025   0.015593180845868283   0.01644474521157578   0.016039366080243048
156.53120624124824   0.015429610517898672   0.016280461313675436   0.015874853206947103
157.53140628125624   0.015264663911554567   0.01611385985178861   0.015708513547636554
158.53160632126423   0.015098490145282013   0.015945123023283516   0.015540512971503839
159.53180636127226   0.014931238389632662   0.015774433185944885   0.015371017497459944
160.53200640128026   0.014763060093491336   0.01560197508946312   0.01520019553908865
161.53220644128825   0.014594109024962476   0.015427935920781673   0.015028217948709965
162.53240648129625   0.014424540540832401   0.015252504639606632   0.01485525727318833
163.53260652130425   0.014254493021708574   0.01507585491451686   0.014681468783049602
164.53280656131224   0.014084086657501637   0.014898144071302515   0.014506989221714317
165.53300660132027   0.013913442568159837   0.014719530723484978   0.01433195634072649
166.53320664132826   0.013742683785430499   0.014540175685026744   0.014156509904762339
167.53340668133626   0.013571935286979224   0.014360242010477853   0.013980791728426499
168.53360672134426   0.013401322074561345   0.014179892117414068   0.013804943683514145
169.53380676135225   0.013230949031420112   0.013999257642801907   0.013629086801653286
170.53400680136028   0.013060908742564584   0.013818450819868827   0.013453329395795787
171.53420684136827   0.01289129506492594   0.013637584620313234   0.01327778114405322
172.53440688137627   0.012722203369488892   0.013456773098067788   0.013102553342334122
173.53460692138427   0.01255373056817481   0.013276131412407185   0.01292775893363469
174.53480696139226   0.012385971405723   0.013095774046511695   0.012753508270464082
175.53500700140026   0.012219001861555816   0.012915806981757828   0.012579890138601016
176.53520704140828   0.012052892332677407   0.01273633446971737   0.01240698678745004
177.53540708141628   0.011887714424981878   0.012557462402102057   0.012234881681014173
178.53560712142428   0.011723540979636854   0.012379298341214047   0.012063659525700751
179.53580716143227   0.01156044607437194   0.012201951523783863   0.011893406274739365
180.53600720144027   0.011398496517968796   0.012025522572320282   0.011724201663065363
181.5362072414483   0.011237738366476693   0.011850087198234523   0.011556107445282912
182.5364072814563   0.01107821489920751   0.011675717972819131   0.011389183280927778
183.5366073214643   0.010919970003979807   0.011502488426789295   0.011223489721849621
184.53680736147228   0.010763048188219698   0.011330473065519474   0.011059088227849376
185.53700740148028   0.010607494659809402   0.011159747327452856   0.010896040836847306
186.53720744148828   0.010453357555935003   0.010990385942161875   0.01073439958814895
187.5374074814963   0.010300688801592354   0.010822463020380415   0.010574204373050431
188.5376075215043   0.010149541914407987   0.010656054262113317   0.010415494928420211
189.5378075615123   0.009999971884775593   0.010491237112234033   0.010258311579978722
190.5380076015203   0.009852035198767229   0.010328090790173682   0.010102695252235675
191.5382076415283   0.009705784951110172   0.010166690615932582   0.009948686173426705
192.53840768153628   0.00956123254091735   0.010007063558207466   0.009796313785898894
193.5386077215443   0.009418366833287352   0.009849210615198055   0.009645602087780107
194.5388077615523   0.009277175495209984   0.009693131637475955   0.009496575376776735
195.5390078015603   0.009137645153861533   0.009538825519861257   0.009349258303385774
196.5392078415683   0.00899976137206968   0.009386290198947421   0.009203675874195974
197.5394078815763   0.008863502566192985   0.009235545416270668   0.009059849792941716
198.53960792158432   0.008728827343929263   0.009086680868756513   0.008917790900718732
199.53980796159232   0.008595688994089776   0.008939802632543155   0.008777508068653865
200.5400080016003   0.00846403889397471   0.008795020406650636   0.008639010289604862
201.5402080416083   0.00833382647970836   0.00865244756836954   0.00850230667929419
202.5404080816163   0.00820500121380531   0.008512196588973396   0.008367406439341751
203.5406081216243   0.008077566285846327   0.00837425465805581   0.008234317833858213
204.54080816163233   0.007951587405441883   0.008238465047691095   0.008103048025996528
205.54100820164032   0.007827136854715583   0.008104657968376424   0.007973604148285539
206.54120824164832   0.007704290478292895   0.007972657669009552   0.007845993361195859
207.54140828165632   0.007583127754120216   0.007842282361481054   0.007720222852884453
208.5416083216643   0.007463726760527195   0.007713374843371688   0.007596295838681718
209.54180836167234   0.007346137344419131   0.007585961118905218   0.0074741911179041
210.54200840168033   0.007230398412153019   0.007460139538628714   0.007353878045094679
211.54220844168833   0.00711654914732003   0.007336011778018999   0.007235325624582103
212.54240848169633   0.007004628997788497   0.007213682726080478   0.007118502518684711
213.54260852170432   0.006894677190023896   0.007093259836274042   0.007003377185088876
214.54280856171232   0.006786694323485324   0.006974796466436965   0.006889930237139449
215.54300860172035   0.006680612418747246   0.006858246386887863   0.006778163979508029
216.54320864172834   0.006576355352392684   0.006743551741822252   0.006668082820061266
217.54340868173634   0.006473845697132548   0.006630653047181311   0.006559691058998247
218.54360872174433   0.006373004730809823   0.006519489181305537   0.006452992886607712
219.54380876175233   0.006273758257679754   0.0064100018942092095   0.006347991442304991
220.54400880176036   0.006176083061373384   0.006302172208331261   0.0062446813019381205
221.54420884176835   0.006079982655292762   0.00619600240457887   0.006143052362986618
222.54440888177635   0.005985460114509763   0.006091495127529941   0.006043094217760157
223.54460892178435   0.005892517816048064   0.005988653190267791   0.005944796187576242
224.54480896179234   0.005801157180979999   0.0058874798240249465   0.005848147302907416
225.54500900180034   0.005711338602119096   0.005788020080759688   0.005753134008843079
226.54520904180836   0.005622936992595938   0.005690407067735767   0.005659737595162818
