             #w        R(w)_min        R(w)_max        R(w)_avg
  0.5000000E+00  -0.7577184E-06  -0.7577184E-06  -0.7577184E-06
  0.1500000E+01  -0.9708405E-06  -0.9708405E-06  -0.9708405E-06
  0.2500000E+01  -0.1243156E-05  -0.1243156E-05  -0.1243156E-05
  0.3500000E+01  -0.1590628E-05  -0.1590628E-05  -0.1590628E-05
  0.4500000E+01  -0.2033221E-05  -0.2033220E-05  -0.2033221E-05
  0.5500000E+01  -0.2595718E-05  -0.2595680E-05  -0.2595715E-05
  0.6500000E+01  -0.3308575E-05  -0.3308538E-05  -0.3308572E-05
  0.7500000E+01  -0.4208745E-05  -0.4208741E-05  -0.4208745E-05
  0.8500000E+01  -0.5340299E-05  -0.5340299E-05  -0.5340299E-05
  0.9500000E+01  -0.6754628E-05  -0.6754628E-05  -0.6754628E-05
  0.1050000E+02  -0.8509854E-05  -0.8509854E-05  -0.8509854E-05
  0.1150000E+02  -0.1066900E-04  -0.1066900E-04  -0.1066900E-04
  0.1250000E+02  -0.1329635E-04  -0.1329635E-04  -0.1329635E-04
  0.1350000E+02  -0.1645155E-04  -0.1645155E-04  -0.1645155E-04
  0.1450000E+02  -0.2018121E-04  -0.2018121E-04  -0.2018121E-04
  0.1550000E+02  -0.2450837E-04  -0.2450837E-04  -0.2450837E-04
  0.1650000E+02  -0.2942135E-04  -0.2942135E-04  -0.2942135E-04
  0.1750000E+02  -0.3486434E-04  -0.3486434E-04  -0.3486434E-04
  0.1850000E+02  -0.4073314E-04  -0.4073314E-04  -0.4073314E-04
  0.1950000E+02  -0.4687884E-04  -0.4687884E-04  -0.4687884E-04
  0.2050000E+02  -0.5312069E-04  -0.5312069E-04  -0.5312069E-04
  0.2150000E+02  -0.5926639E-04  -0.5926639E-04  -0.5926639E-04
  0.2250000E+02  -0.6513520E-04  -0.6513520E-04  -0.6513520E-04
  0.2350000E+02  -0.7057820E-04  -0.7057820E-04  -0.7057820E-04
  0.2450000E+02  -0.7549118E-04  -0.7549118E-04  -0.7549118E-04
  0.2550000E+02  -0.7981835E-04  -0.7981835E-04  -0.7981835E-04
  0.2650000E+02  -0.8354802E-04  -0.8354802E-04  -0.8354802E-04
  0.2750000E+02  -0.8670324E-04  -0.8670324E-04  -0.8670324E-04
  0.2850000E+02  -0.8933060E-04  -0.8933060E-04  -0.8933060E-04
  0.2950000E+02  -0.9148976E-04  -0.9148976E-04  -0.9148976E-04
  0.3050000E+02  -0.9324500E-04  -0.9324499E-04  -0.9324500E-04
  0.3150000E+02  -0.9465934E-04  -0.9465933E-04  -0.9465934E-04
  0.3250000E+02  -0.9579090E-04  -0.9579088E-04  -0.9579090E-04
  0.3350000E+02  -0.9669108E-04  -0.9669106E-04  -0.9669108E-04
  0.3450000E+02  -0.9740395E-04  -0.9740392E-04  -0.9740395E-04
  0.3550000E+02  -0.9796646E-04  -0.9796643E-04  -0.9796646E-04
  0.3650000E+02  -0.9840906E-04  -0.9840904E-04  -0.9840906E-04
  0.3750000E+02  -0.9875655E-04  -0.9875653E-04  -0.9875654E-04
  0.3850000E+02  -0.9902887E-04  -0.9902886E-04  -0.9902887E-04
  0.3950000E+02  -0.9924200E-04  -0.9924200E-04  -0.9924200E-04
  0.4050000E+02  -0.9940863E-04  -0.9940863E-04  -0.9940863E-04
  0.4150000E+02  -0.9953878E-04  -0.9953878E-04  -0.9953878E-04
  0.4250000E+02  -0.9964039E-04  -0.9964039E-04  -0.9964039E-04
  0.4350000E+02  -0.9971966E-04  -0.9971966E-04  -0.9971966E-04
  0.4450000E+02  -0.9978149E-04  -0.9978149E-04  -0.9978149E-04
  0.4550000E+02  -0.9982970E-04  -0.9982970E-04  -0.9982970E-04
  0.4650000E+02  -0.9986727E-04  -0.9986727E-04  -0.9986727E-04
  0.4750000E+02  -0.9989656E-04  -0.9989656E-04  -0.9989656E-04
  0.4850000E+02  -0.9991938E-04  -0.9991938E-04  -0.9991938E-04
  0.4950000E+02  -0.9993716E-04  -0.9993716E-04  -0.9993716E-04
  0.5050000E+02  -0.9995102E-04  -0.9995102E-04  -0.9995102E-04
  0.5150000E+02  -0.9996181E-04  -0.9996181E-04  -0.9996181E-04
  0.5250000E+02  -0.9997022E-04  -0.9997022E-04  -0.9997022E-04
  0.5350000E+02  -0.9997677E-04  -0.9997677E-04  -0.9997677E-04
  0.5450000E+02  -0.9998187E-04  -0.9998187E-04  -0.9998187E-04
  0.5550000E+02  -0.9998585E-04  -0.9998585E-04  -0.9998585E-04
  0.5650000E+02  -0.9998895E-04  -0.9998895E-04  -0.9998895E-04
  0.5750000E+02  -0.9999136E-04  -0.9999136E-04  -0.9999136E-04
  0.5850000E+02  -0.9999324E-04  -0.9999324E-04  -0.9999324E-04
  0.5950000E+02  -0.9999471E-04  -0.9999471E-04  -0.9999471E-04
  0.6050000E+02  -0.9999585E-04  -0.9999585E-04  -0.9999585E-04
  0.6150000E+02  -0.9999674E-04  -0.9999674E-04  -0.9999674E-04
  0.6250000E+02  -0.9999744E-04  -0.9999744E-04  -0.9999744E-04
  0.6350000E+02  -0.9999798E-04  -0.9999798E-04  -0.9999798E-04
  0.6450000E+02  -0.9999840E-04  -0.9999840E-04  -0.9999840E-04
  0.6550000E+02  -0.9999873E-04  -0.9999873E-04  -0.9999873E-04
  0.6650000E+02  -0.9999899E-04  -0.9999899E-04  -0.9999899E-04
  0.6750000E+02  -0.9999919E-04  -0.9999919E-04  -0.9999919E-04
  0.6850000E+02  -0.9999935E-04  -0.9999935E-04  -0.9999935E-04
  0.6950000E+02  -0.9999948E-04  -0.9999948E-04  -0.9999948E-04
  0.7050000E+02  -0.9999957E-04  -0.9999957E-04  -0.9999957E-04
  0.7150000E+02  -0.9999965E-04  -0.9999965E-04  -0.9999965E-04
  0.7250000E+02  -0.9999971E-04  -0.9999971E-04  -0.9999971E-04
  0.7350000E+02  -0.9999976E-04  -0.9999976E-04  -0.9999976E-04
  0.7450000E+02  -0.9999980E-04  -0.9999980E-04  -0.9999980E-04
  0.7550000E+02  -0.9999983E-04  -0.9999983E-04  -0.9999983E-04
  0.7650000E+02  -0.9999985E-04  -0.9999985E-04  -0.9999985E-04
  0.7750000E+02  -0.9999987E-04  -0.9999987E-04  -0.9999987E-04
  0.7850000E+02  -0.9999988E-04  -0.9999988E-04  -0.9999988E-04
  0.7950000E+02  -0.9999990E-04  -0.9999990E-04  -0.9999990E-04
  0.8050000E+02  -0.9999991E-04  -0.9999991E-04  -0.9999991E-04
  0.8150000E+02  -0.9999992E-04  -0.9999992E-04  -0.9999992E-04
  0.8250000E+02  -0.9999992E-04  -0.9999992E-04  -0.9999992E-04
  0.8350000E+02  -0.9999993E-04  -0.9999993E-04  -0.9999993E-04
  0.8450000E+02  -0.9999993E-04  -0.9999993E-04  -0.9999993E-04
  0.8550000E+02  -0.9999994E-04  -0.9999993E-04  -0.9999994E-04
  0.8650000E+02  -0.9999994E-04  -0.9999993E-04  -0.9999994E-04
  0.8750000E+02  -0.9999995E-04  -0.9999993E-04  -0.9999994E-04
  0.8850000E+02  -0.9999995E-04  -0.9999993E-04  -0.9999995E-04
  0.8950000E+02  -0.9999995E-04  -0.9999993E-04  -0.9999995E-04
  0.9050000E+02  -0.9999995E-04  -0.9999993E-04  -0.9999995E-04
  0.9150000E+02  -0.9999996E-04  -0.9999993E-04  -0.9999996E-04
  0.9250000E+02  -0.9999996E-04  -0.9999994E-04  -0.9999996E-04
  0.9350000E+02  -0.9999996E-04  -0.9999994E-04  -0.9999996E-04
  0.9450000E+02  -0.9999996E-04  -0.9999995E-04  -0.9999996E-04
  0.9550000E+02  -0.9999997E-04  -0.9999995E-04  -0.9999997E-04
  0.9650000E+02  -0.9999997E-04  -0.9999996E-04  -0.9999997E-04
  0.9750000E+02  -0.9999997E-04  -0.9999996E-04  -0.9999997E-04
  0.9850000E+02  -0.9999997E-04  -0.9999997E-04  -0.9999997E-04
  0.9950000E+02  -0.9999997E-04  -0.9999997E-04  -0.9999997E-04
  0.1005000E+03  -0.9999997E-04  -0.9999997E-04  -0.9999997E-04
  0.1015000E+03  -0.9999998E-04  -0.9999997E-04  -0.9999998E-04
  0.1025000E+03  -0.9999998E-04  -0.9999998E-04  -0.9999998E-04
  0.1035000E+03  -0.9999998E-04  -0.9999998E-04  -0.9999998E-04
  0.1045000E+03  -0.9999998E-04  -0.9999998E-04  -0.9999998E-04
  0.1055000E+03  -0.9999998E-04  -0.9999998E-04  -0.9999998E-04
  0.1065000E+03  -0.9999998E-04  -0.9999998E-04  -0.9999998E-04
  0.1075000E+03  -0.9999998E-04  -0.9999998E-04  -0.9999998E-04
  0.1085000E+03  -0.9999998E-04  -0.9999998E-04  -0.9999998E-04
  0.1095000E+03  -0.9999998E-04  -0.9999998E-04  -0.9999998E-04
  0.1105000E+03  -0.9999999E-04  -0.9999999E-04  -0.9999999E-04
  0.1115000E+03  -0.9999999E-04  -0.9999999E-04  -0.9999999E-04
  0.1125000E+03  -0.9999999E-04  -0.9999999E-04  -0.9999999E-04
  0.1135000E+03  -0.9999999E-04  -0.9999999E-04  -0.9999999E-04
  0.1145000E+03  -0.9999999E-04  -0.9999999E-04  -0.9999999E-04
  0.1155000E+03  -0.9999999E-04  -0.9999999E-04  -0.9999999E-04
  0.1165000E+03  -0.9999999E-04  -0.9999999E-04  -0.9999999E-04
  0.1175000E+03  -0.9999999E-04  -0.9999999E-04  -0.9999999E-04
  0.1185000E+03  -0.9999999E-04  -0.9999999E-04  -0.9999999E-04
  0.1195000E+03  -0.9999999E-04  -0.9999999E-04  -0.9999999E-04
  0.1205000E+03  -0.9999999E-04  -0.9999999E-04  -0.9999999E-04
  0.1215000E+03  -0.9999999E-04  -0.9999999E-04  -0.9999999E-04
  0.1225000E+03  -0.9999999E-04  -0.9999999E-04  -0.9999999E-04
  0.1235000E+03  -0.9999999E-04  -0.9999999E-04  -0.9999999E-04
  0.1245000E+03  -0.9999999E-04  -0.9999999E-04  -0.9999999E-04
  0.1255000E+03  -0.1000000E-03  -0.1000000E-03  -0.1000000E-03
  0.1265000E+03  -0.1000000E-03  -0.1000000E-03  -0.1000000E-03
  0.1275000E+03  -0.1000000E-03  -0.1000000E-03  -0.1000000E-03
  0.1285000E+03  -0.1000000E-03  -0.1000000E-03  -0.1000000E-03
  0.1295000E+03  -0.1000000E-03  -0.1000000E-03  -0.1000000E-03
  0.1305000E+03  -0.1000000E-03  -0.1000000E-03  -0.1000000E-03
  0.1315000E+03  -0.1000000E-03  -0.1000000E-03  -0.1000000E-03
  0.1325000E+03  -0.1000000E-03  -0.1000000E-03  -0.1000000E-03
  0.1335000E+03  -0.1000000E-03  -0.1000000E-03  -0.1000000E-03
  0.1345000E+03  -0.1000000E-03  -0.1000000E-03  -0.1000000E-03
  0.1355000E+03  -0.1000000E-03  -0.1000000E-03  -0.1000000E-03
  0.1365000E+03  -0.1000000E-03  -0.1000000E-03  -0.1000000E-03
  0.1375000E+03  -0.1000000E-03  -0.1000000E-03  -0.1000000E-03
  0.1385000E+03  -0.1000000E-03  -0.1000000E-03  -0.1000000E-03
  0.1395000E+03  -0.1000000E-03  -0.1000000E-03  -0.1000000E-03
  0.1405000E+03  -0.1000000E-03  -0.1000000E-03  -0.1000000E-03
  0.1415000E+03  -0.1000000E-03  -0.1000000E-03  -0.1000000E-03
  0.1425000E+03  -0.1000000E-03  -0.1000000E-03  -0.1000000E-03
  0.1435000E+03  -0.1000000E-03  -0.1000000E-03  -0.1000000E-03
  0.1445000E+03  -0.1000000E-03  -0.1000000E-03  -0.1000000E-03
  0.1455000E+03  -0.1000000E-03  -0.1000000E-03  -0.1000000E-03
  0.1465000E+03  -0.1000000E-03  -0.1000000E-03  -0.1000000E-03
  0.1475000E+03  -0.1000000E-03  -0.1000000E-03  -0.1000000E-03
  0.1485000E+03  -0.1000000E-03  -0.1000000E-03  -0.1000000E-03
  0.1495000E+03  -0.1000000E-03  -0.1000000E-03  -0.1000000E-03
  0.1505000E+03  -0.1000000E-03  -0.1000000E-03  -0.1000000E-03
  0.1515000E+03  -0.1000000E-03  -0.1000000E-03  -0.1000000E-03
  0.1525000E+03  -0.1000000E-03  -0.1000000E-03  -0.1000000E-03
  0.1535000E+03  -0.1000000E-03  -0.1000000E-03  -0.1000000E-03
  0.1545000E+03  -0.1000000E-03  -0.1000000E-03  -0.1000000E-03
  0.1555000E+03  -0.1000000E-03  -0.1000000E-03  -0.1000000E-03
  0.1565000E+03  -0.1000000E-03  -0.1000000E-03  -0.1000000E-03
  0.1575000E+03  -0.1000000E-03  -0.1000000E-03  -0.1000000E-03
  0.1585000E+03  -0.1000000E-03  -0.1000000E-03  -0.1000000E-03
  0.1595000E+03  -0.1000000E-03  -0.1000000E-03  -0.1000000E-03
  0.1605000E+03  -0.1000000E-03  -0.1000000E-03  -0.1000000E-03
  0.1615000E+03  -0.1000000E-03  -0.1000000E-03  -0.1000000E-03
  0.1625000E+03  -0.1000000E-03  -0.1000000E-03  -0.1000000E-03
  0.1635000E+03  -0.1000000E-03  -0.1000000E-03  -0.1000000E-03
  0.1645000E+03  -0.1000000E-03  -0.1000000E-03  -0.1000000E-03
  0.1655000E+03  -0.1000000E-03  -0.1000000E-03  -0.1000000E-03
  0.1665000E+03  -0.1000000E-03  -0.1000000E-03  -0.1000000E-03
  0.1675000E+03  -0.1000000E-03  -0.1000000E-03  -0.1000000E-03
  0.1685000E+03  -0.1000000E-03  -0.1000000E-03  -0.1000000E-03
  0.1695000E+03  -0.1000000E-03  -0.1000000E-03  -0.1000000E-03
  0.1705000E+03  -0.1000000E-03  -0.1000000E-03  -0.1000000E-03
  0.1715000E+03  -0.1000000E-03  -0.1000000E-03  -0.1000000E-03
  0.1725000E+03  -0.1000000E-03  -0.1000000E-03  -0.1000000E-03
  0.1735000E+03  -0.1000000E-03  -0.1000000E-03  -0.1000000E-03
  0.1745000E+03  -0.1000000E-03  -0.1000000E-03  -0.1000000E-03
  0.1755000E+03  -0.1000000E-03  -0.1000000E-03  -0.1000000E-03
  0.1765000E+03  -0.1000000E-03  -0.1000000E-03  -0.1000000E-03
  0.1775000E+03  -0.1000000E-03  -0.1000000E-03  -0.1000000E-03
  0.1785000E+03  -0.1000000E-03  -0.1000000E-03  -0.1000000E-03
  0.1795000E+03  -0.1000000E-03  -0.1000000E-03  -0.1000000E-03
  0.1805000E+03  -0.1000000E-03  -0.1000000E-03  -0.1000000E-03
  0.1815000E+03  -0.1000000E-03  -0.1000000E-03  -0.1000000E-03
  0.1825000E+03  -0.1000000E-03  -0.1000000E-03  -0.1000000E-03
  0.1835000E+03  -0.1000000E-03  -0.1000000E-03  -0.1000000E-03
  0.1845000E+03  -0.1000000E-03  -0.1000000E-03  -0.1000000E-03
  0.1855000E+03  -0.1000000E-03  -0.1000000E-03  -0.1000000E-03
  0.1865000E+03  -0.1000000E-03  -0.1000000E-03  -0.1000000E-03
  0.1875000E+03  -0.1000000E-03  -0.1000000E-03  -0.1000000E-03
  0.1885000E+03  -0.1000000E-03  -0.1000000E-03  -0.1000000E-03
  0.1895000E+03  -0.1000000E-03  -0.1000000E-03  -0.1000000E-03
  0.1905000E+03  -0.1000000E-03  -0.1000000E-03  -0.1000000E-03
  0.1915000E+03  -0.1000000E-03  -0.1000000E-03  -0.1000000E-03
  0.1925000E+03  -0.1000000E-03  -0.1000000E-03  -0.1000000E-03
  0.1935000E+03  -0.1000000E-03  -0.1000000E-03  -0.1000000E-03
  0.1945000E+03  -0.1000000E-03  -0.1000000E-03  -0.1000000E-03
  0.1955000E+03  -0.1000000E-03  -0.1000000E-03  -0.1000000E-03
  0.1965000E+03  -0.1000000E-03  -0.1000000E-03  -0.1000000E-03
  0.1975000E+03  -0.1000000E-03  -0.1000000E-03  -0.1000000E-03
  0.1985000E+03  -0.1000000E-03  -0.1000000E-03  -0.1000000E-03
  0.1995000E+03  -0.1000000E-03  -0.1000000E-03  -0.1000000E-03
  0.2005000E+03  -0.1000000E-03  -0.1000000E-03  -0.1000000E-03
  0.2015000E+03  -0.1000000E-03  -0.1000000E-03  -0.1000000E-03
  0.2025000E+03  -0.1000000E-03  -0.1000000E-03  -0.1000000E-03
  0.2035000E+03  -0.1000000E-03  -0.1000000E-03  -0.1000000E-03
  0.2045000E+03  -0.1000000E-03  -0.1000000E-03  -0.1000000E-03
  0.2055000E+03  -0.1000000E-03  -0.1000000E-03  -0.1000000E-03
  0.2065000E+03  -0.1000000E-03  -0.1000000E-03  -0.1000000E-03
  0.2075000E+03  -0.1000000E-03  -0.1000000E-03  -0.1000000E-03
  0.2085000E+03  -0.1000000E-03  -0.1000000E-03  -0.1000000E-03
  0.2095000E+03  -0.1000000E-03  -0.1000000E-03  -0.1000000E-03
  0.2105000E+03  -0.1000000E-03  -0.1000000E-03  -0.1000000E-03
  0.2115000E+03  -0.1000000E-03  -0.1000000E-03  -0.1000000E-03
  0.2125000E+03  -0.1000000E-03  -0.1000000E-03  -0.1000000E-03
  0.2135000E+03  -0.1000000E-03  -0.1000000E-03  -0.1000000E-03
  0.2145000E+03  -0.1000000E-03  -0.1000000E-03  -0.1000000E-03
  0.2155000E+03  -0.1000000E-03  -0.1000000E-03  -0.1000000E-03
  0.2165000E+03  -0.1000000E-03  -0.1000000E-03  -0.1000000E-03
  0.2175000E+03  -0.1000000E-03  -0.1000000E-03  -0.1000000E-03
  0.2185000E+03  -0.1000000E-03  -0.1000000E-03  -0.1000000E-03
  0.2195000E+03  -0.1000000E-03  -0.1000000E-03  -0.1000000E-03
  0.2205000E+03  -0.1000000E-03  -0.1000000E-03  -0.1000000E-03
  0.2215000E+03  -0.1000000E-03  -0.1000000E-03  -0.1000000E-03
  0.2225000E+03  -0.1000000E-03  -0.1000000E-03  -0.1000000E-03
  0.2235000E+03  -0.1000000E-03  -0.1000000E-03  -0.1000000E-03
  0.2245000E+03  -0.1000000E-03  -0.1000000E-03  -0.1000000E-03
  0.2255000E+03  -0.9999999E-04  -0.9999999E-04  -0.9999999E-04
  0.2265000E+03  -0.9999999E-04  -0.9999999E-04  -0.9999999E-04
  0.2275000E+03  -0.9999999E-04  -0.9999999E-04  -0.9999999E-04
  0.2285000E+03  -0.9999999E-04  -0.9999999E-04  -0.9999999E-04
  0.2295000E+03  -0.9999999E-04  -0.9999999E-04  -0.9999999E-04
  0.2305000E+03  -0.9999999E-04  -0.9999999E-04  -0.9999999E-04
  0.2315000E+03  -0.9999999E-04  -0.9999999E-04  -0.9999999E-04
  0.2325000E+03  -0.9999999E-04  -0.9999999E-04  -0.9999999E-04
  0.2335000E+03  -0.9999999E-04  -0.9999999E-04  -0.9999999E-04
  0.2345000E+03  -0.9999999E-04  -0.9999999E-04  -0.9999999E-04
  0.2355000E+03  -0.9999999E-04  -0.9999999E-04  -0.9999999E-04
  0.2365000E+03  -0.9999999E-04  -0.9999999E-04  -0.9999999E-04
  0.2375000E+03  -0.9999999E-04  -0.9999999E-04  -0.9999999E-04
  0.2385000E+03  -0.9999999E-04  -0.9999999E-04  -0.9999999E-04
  0.2395000E+03  -0.9999999E-04  -0.9999999E-04  -0.9999999E-04
  0.2405000E+03  -0.9999999E-04  -0.9999999E-04  -0.9999999E-04
  0.2415000E+03  -0.9999998E-04  -0.9999998E-04  -0.9999998E-04
  0.2425000E+03  -0.9999998E-04  -0.9999998E-04  -0.9999998E-04
  0.2435000E+03  -0.9999998E-04  -0.9999998E-04  -0.9999998E-04
  0.2445000E+03  -0.9999998E-04  -0.9999998E-04  -0.9999998E-04
  0.2455000E+03  -0.9999998E-04  -0.9999998E-04  -0.9999998E-04
  0.2465000E+03  -0.9999998E-04  -0.9999998E-04  -0.9999998E-04
  0.2475000E+03  -0.9999998E-04  -0.9999998E-04  -0.9999998E-04
  0.2485000E+03  -0.9999998E-04  -0.9999998E-04  -0.9999998E-04
  0.2495000E+03  -0.9999998E-04  -0.9999998E-04  -0.9999998E-04
  0.2505000E+03  -0.9999997E-04  -0.9999997E-04  -0.9999997E-04
  0.2515000E+03  -0.9999997E-04  -0.9999997E-04  -0.9999997E-04
  0.2525000E+03  -0.9999997E-04  -0.9999997E-04  -0.9999997E-04
  0.2535000E+03  -0.9999997E-04  -0.9999997E-04  -0.9999997E-04
  0.2545000E+03  -0.9999997E-04  -0.9999997E-04  -0.9999997E-04
  0.2555000E+03  -0.9999997E-04  -0.9999997E-04  -0.9999997E-04
  0.2565000E+03  -0.9999996E-04  -0.9999996E-04  -0.9999996E-04
  0.2575000E+03  -0.9999996E-04  -0.9999996E-04  -0.9999996E-04
  0.2585000E+03  -0.9999996E-04  -0.9999996E-04  -0.9999996E-04
  0.2595000E+03  -0.9999996E-04  -0.9999996E-04  -0.9999996E-04
  0.2605000E+03  -0.9999996E-04  -0.9999996E-04  -0.9999996E-04
  0.2615000E+03  -0.9999996E-04  -0.9999996E-04  -0.9999996E-04
  0.2625000E+03  -0.9999995E-04  -0.9999995E-04  -0.9999995E-04
  0.2635000E+03  -0.9999995E-04  -0.9999995E-04  -0.9999995E-04
  0.2645000E+03  -0.9999995E-04  -0.9999995E-04  -0.9999995E-04
  0.2655000E+03  -0.9999995E-04  -0.9999995E-04  -0.9999995E-04
  0.2665000E+03  -0.9999994E-04  -0.9999994E-04  -0.9999994E-04
  0.2675000E+03  -0.9999994E-04  -0.9999994E-04  -0.9999994E-04
  0.2685000E+03  -0.9999994E-04  -0.9999994E-04  -0.9999994E-04
  0.2695000E+03  -0.9999994E-04  -0.9999994E-04  -0.9999994E-04
  0.2705000E+03  -0.9999993E-04  -0.9999993E-04  -0.9999993E-04
  0.2715000E+03  -0.9999993E-04  -0.9999993E-04  -0.9999993E-04
  0.2725000E+03  -0.9999993E-04  -0.9999993E-04  -0.9999993E-04
  0.2735000E+03  -0.9999992E-04  -0.9999992E-04  -0.9999992E-04
  0.2745000E+03  -0.9999992E-04  -0.9999992E-04  -0.9999992E-04
  0.2755000E+03  -0.9999992E-04  -0.9999992E-04  -0.9999992E-04
  0.2765000E+03  -0.9999992E-04  -0.9999992E-04  -0.9999992E-04
  0.2775000E+03  -0.9999991E-04  -0.9999991E-04  -0.9999991E-04
  0.2785000E+03  -0.9999991E-04  -0.9999991E-04  -0.9999991E-04
  0.2795000E+03  -0.9999990E-04  -0.9999990E-04  -0.9999990E-04
  0.2805000E+03  -0.9999990E-04  -0.9999990E-04  -0.9999990E-04
  0.2815000E+03  -0.9999990E-04  -0.9999990E-04  -0.9999990E-04
  0.2825000E+03  -0.9999989E-04  -0.9999989E-04  -0.9999989E-04
  0.2835000E+03  -0.9999989E-04  -0.9999989E-04  -0.9999989E-04
  0.2845000E+03  -0.9999988E-04  -0.9999988E-04  -0.9999988E-04
  0.2855000E+03  -0.9999988E-04  -0.9999988E-04  -0.9999988E-04
  0.2865000E+03  -0.9999988E-04  -0.9999988E-04  -0.9999988E-04
  0.2875000E+03  -0.9999987E-04  -0.9999987E-04  -0.9999987E-04
  0.2885000E+03  -0.9999987E-04  -0.9999987E-04  -0.9999987E-04
  0.2895000E+03  -0.9999986E-04  -0.9999986E-04  -0.9999986E-04
  0.2905000E+03  -0.9999986E-04  -0.9999986E-04  -0.9999986E-04
  0.2915000E+03  -0.9999985E-04  -0.9999985E-04  -0.9999985E-04
  0.2925000E+03  -0.9999985E-04  -0.9999985E-04  -0.9999985E-04
  0.2935000E+03  -0.9999984E-04  -0.9999984E-04  -0.9999984E-04
  0.2945000E+03  -0.9999984E-04  -0.9999984E-04  -0.9999984E-04
  0.2955000E+03  -0.9999983E-04  -0.9999983E-04  -0.9999983E-04
  0.2965000E+03  -0.9999983E-04  -0.9999983E-04  -0.9999983E-04
  0.2975000E+03  -0.9999982E-04  -0.9999982E-04  -0.9999982E-04
  0.2985000E+03  -0.9999981E-04  -0.9999981E-04  -0.9999981E-04
  0.2995000E+03  -0.9999981E-04  -0.9999981E-04  -0.9999981E-04
  0.3005000E+03  -0.9999980E-04  -0.9999980E-04  -0.9999980E-04
  0.3015000E+03  -0.9999979E-04  -0.9999979E-04  -0.9999979E-04
  0.3025000E+03  -0.9999979E-04  -0.9999979E-04  -0.9999979E-04
  0.3035000E+03  -0.9999978E-04  -0.9999978E-04  -0.9999978E-04
  0.3045000E+03  -0.9999977E-04  -0.9999977E-04  -0.9999977E-04
  0.3055000E+03  -0.9999977E-04  -0.9999977E-04  -0.9999977E-04
  0.3065000E+03  -0.9999976E-04  -0.9999976E-04  -0.9999976E-04
  0.3075000E+03  -0.9999975E-04  -0.9999975E-04  -0.9999975E-04
  0.3085000E+03  -0.9999975E-04  -0.9999975E-04  -0.9999975E-04
  0.3095000E+03  -0.9999974E-04  -0.9999974E-04  -0.9999974E-04
  0.3105000E+03  -0.9999973E-04  -0.9999973E-04  -0.9999973E-04
