             #w        R(w)_min        R(w)_max        R(w)_avg
  0.5000000E+00   0.2381039E-09   0.3635044E-09   0.3547774E-09
  0.1500000E+01   0.4205675E-09   0.5136390E-09   0.4955908E-09
  0.2500000E+01   0.6834046E-09   0.7072527E-09   0.6834046E-09
  0.3500000E+01   0.9313253E-09   0.1051323E-08   0.9313253E-09
  0.4500000E+01   0.1255520E-08   0.1523365E-08   0.1255520E-08
  0.5500000E+01   0.1664745E-08   0.2109916E-08   0.1675827E-08
  0.6500000E+01   0.2166223E-08   0.2815802E-08   0.2216463E-08
  0.7500000E+01   0.2800118E-08   0.3645723E-08   0.2906861E-08
  0.8500000E+01   0.3601891E-08   0.4606069E-08   0.3782632E-08
  0.9500000E+01   0.4616733E-08   0.5706532E-08   0.4886686E-08
  0.1050000E+02   0.5901992E-08   0.6961439E-08   0.6270520E-08
  0.1150000E+02   0.7530122E-08   0.8390855E-08   0.7995705E-08
  0.1250000E+02   0.9592230E-08   0.1013558E-07   0.1013558E-07
  0.1350000E+02   0.1188788E-07   0.1277720E-07   0.1277720E-07
  0.1450000E+02   0.1403295E-07   0.1602350E-07   0.1602350E-07
  0.1550000E+02   0.1650968E-07   0.1999584E-07   0.1999584E-07
  0.1650000E+02   0.1938236E-07   0.2491570E-07   0.2483676E-07
  0.1750000E+02   0.2272843E-07   0.3150975E-07   0.3071316E-07
  0.1850000E+02   0.2664062E-07   0.3977157E-07   0.3781982E-07
  0.1950000E+02   0.3122962E-07   0.5008893E-07   0.4638334E-07
  0.2050000E+02   0.3662707E-07   0.6292636E-07   0.5666649E-07
  0.2150000E+02   0.4298925E-07   0.7883628E-07   0.6897309E-07
  0.2250000E+02   0.5050122E-07   0.9847068E-07   0.8365332E-07
  0.2350000E+02   0.5938167E-07   0.1225932E-06   0.1011096E-06
  0.2450000E+02   0.6988845E-07   0.1520911E-06   0.1218029E-06
  0.2550000E+02   0.8232487E-07   0.1879879E-06   0.1462601E-06
  0.2650000E+02   0.9704679E-07   0.2314542E-06   0.1750812E-06
  0.2750000E+02   0.1144706E-06   0.2838195E-06   0.2089478E-06
  0.2850000E+02   0.1350822E-06   0.3465816E-06   0.2486320E-06
  0.2950000E+02   0.1594467E-06   0.4214158E-06   0.2950060E-06
  0.3050000E+02   0.1882195E-06   0.5101824E-06   0.3490526E-06
  0.3150000E+02   0.2221581E-06   0.6149331E-06   0.4118758E-06
  0.3250000E+02   0.2621350E-06   0.7379152E-06   0.4847128E-06
  0.3350000E+02   0.3091522E-06   0.8815750E-06   0.5689468E-06
  0.3450000E+02   0.3643557E-06   0.1048560E-05   0.6661194E-06
  0.3550000E+02   0.4290521E-06   0.1241720E-05   0.7779451E-06
  0.3650000E+02   0.5047257E-06   0.1464107E-05   0.9063259E-06
  0.3750000E+02   0.5930565E-06   0.1718975E-05   0.1053366E-05
  0.3850000E+02   0.6959395E-06   0.2009777E-05   0.1221389E-05
  0.3950000E+02   0.8155046E-06   0.2340170E-05   0.1412953E-05
  0.4050000E+02   0.9541371E-06   0.2714011E-05   0.1630868E-05
  0.4150000E+02   0.1114499E-05   0.3135359E-05   0.1878215E-05
  0.4250000E+02   0.1299553E-05   0.3608477E-05   0.2158362E-05
  0.4350000E+02   0.1512580E-05   0.4137839E-05   0.2474985E-05
  0.4450000E+02   0.1757208E-05   0.4728130E-05   0.2832085E-05
  0.4550000E+02   0.2037432E-05   0.5384258E-05   0.3234007E-05
  0.4650000E+02   0.2357637E-05   0.6111360E-05   0.3685463E-05
  0.4750000E+02   0.2722623E-05   0.6914814E-05   0.4191546E-05
  0.4850000E+02   0.3137627E-05   0.7800252E-05   0.4757753E-05
  0.4950000E+02   0.3608349E-05   0.8773573E-05   0.5390005E-05
  0.5050000E+02   0.4140971E-05   0.9840961E-05   0.6094662E-05
  0.5150000E+02   0.4742181E-05   0.1100890E-04   0.6878547E-05
  0.5250000E+02   0.5419198E-05   0.1228419E-04   0.7748961E-05
  0.5350000E+02   0.6179791E-05   0.1367396E-04   0.8713700E-05
  0.5450000E+02   0.7032298E-05   0.1518573E-04   0.9781075E-05
  0.5550000E+02   0.7985650E-05   0.1682735E-04   0.1095993E-04
  0.5650000E+02   0.9049389E-05   0.1860710E-04   0.1225964E-04
  0.5750000E+02   0.1023368E-04   0.2053367E-04   0.1369015E-04
  0.5850000E+02   0.1154935E-04   0.2261616E-04   0.1526197E-04
  0.5950000E+02   0.1300785E-04   0.2486415E-04   0.1698620E-04
  0.6050000E+02   0.1462135E-04   0.2728769E-04   0.1887452E-04
  0.6150000E+02   0.1640267E-04   0.2989729E-04   0.2093921E-04
  0.6250000E+02   0.1836535E-04   0.3270398E-04   0.2319315E-04
  0.6350000E+02   0.2052362E-04   0.3571930E-04   0.2564984E-04
  0.6450000E+02   0.2289242E-04   0.3895530E-04   0.2832338E-04
  0.6550000E+02   0.2548741E-04   0.4242456E-04   0.3122847E-04
  0.6650000E+02   0.2832495E-04   0.4614020E-04   0.3438042E-04
  0.6750000E+02   0.3142214E-04   0.5011588E-04   0.3779513E-04
  0.6850000E+02   0.3479677E-04   0.5436579E-04   0.4148911E-04
  0.6950000E+02   0.3846730E-04   0.5890466E-04   0.4547941E-04
  0.7050000E+02   0.4245293E-04   0.6374773E-04   0.4978368E-04
  0.7150000E+02   0.4677349E-04   0.6891078E-04   0.5442009E-04
  0.7250000E+02   0.5144948E-04   0.7441009E-04   0.5940734E-04
  0.7350000E+02   0.5650202E-04   0.8026242E-04   0.6476463E-04
  0.7450000E+02   0.6195284E-04   0.8648500E-04   0.7051163E-04
  0.7550000E+02   0.6782422E-04   0.9309553E-04   0.7666846E-04
  0.7650000E+02   0.7413901E-04   0.1001121E-03   0.8325565E-04
  0.7750000E+02   0.8092051E-04   0.1075532E-03   0.9029410E-04
  0.7850000E+02   0.8819252E-04   0.1154377E-03   0.9780506E-04
  0.7950000E+02   0.9597920E-04   0.1237848E-03   0.1058101E-03
  0.8050000E+02   0.1043051E-03   0.1326139E-03   0.1143309E-03
  0.8150000E+02   0.1131950E-03   0.1419447E-03   0.1233895E-03
  0.8250000E+02   0.1226740E-03   0.1517970E-03   0.1330081E-03
  0.8350000E+02   0.1327673E-03   0.1621910E-03   0.1432090E-03
  0.8450000E+02   0.1435003E-03   0.1731467E-03   0.1540143E-03
  0.8550000E+02   0.1548983E-03   0.1846843E-03   0.1654464E-03
  0.8650000E+02   0.1669865E-03   0.1968238E-03   0.1775275E-03
  0.8750000E+02   0.1797903E-03   0.2095854E-03   0.1902797E-03
  0.8850000E+02   0.1933346E-03   0.2229889E-03   0.2037248E-03
  0.8950000E+02   0.2076440E-03   0.2370540E-03   0.2178845E-03
  0.9050000E+02   0.2227430E-03   0.2518002E-03   0.2327802E-03
  0.9150000E+02   0.2386554E-03   0.2672466E-03   0.2484327E-03
  0.9250000E+02   0.2554046E-03   0.2834119E-03   0.2648625E-03
  0.9350000E+02   0.2730132E-03   0.3003143E-03   0.2820896E-03
  0.9450000E+02   0.2915032E-03   0.3179717E-03   0.3001333E-03
  0.9550000E+02   0.3108959E-03   0.3364011E-03   0.3190124E-03
  0.9650000E+02   0.3312115E-03   0.3556191E-03   0.3387449E-03
  0.9750000E+02   0.3524692E-03   0.3756415E-03   0.3593479E-03
  0.9850000E+02   0.3746875E-03   0.3964834E-03   0.3808378E-03
  0.9950000E+02   0.3978834E-03   0.4181591E-03   0.4032302E-03
  0.1005000E+03   0.4220727E-03   0.4406818E-03   0.4265394E-03
  0.1015000E+03   0.4472701E-03   0.4640640E-03   0.4507789E-03
  0.1025000E+03   0.4734888E-03   0.4883172E-03   0.4759610E-03
  0.1035000E+03   0.5007405E-03   0.5134518E-03   0.5020970E-03
  0.1045000E+03   0.5290356E-03   0.5394772E-03   0.5291968E-03
  0.1055000E+03   0.5572693E-03   0.5664017E-03   0.5572693E-03
  0.1065000E+03   0.5863217E-03   0.5942324E-03   0.5863217E-03
  0.1075000E+03   0.6163604E-03   0.6229751E-03   0.6163604E-03
  0.1085000E+03   0.6473899E-03   0.6527987E-03   0.6473899E-03
  0.1095000E+03   0.6794135E-03   0.6864079E-03   0.6794135E-03
  0.1105000E+03   0.7124332E-03   0.7210874E-03   0.7124332E-03
  0.1115000E+03   0.7464492E-03   0.7568355E-03   0.7464492E-03
  0.1125000E+03   0.7804923E-03   0.7936489E-03   0.7814604E-03
  0.1135000E+03   0.8147629E-03   0.8315220E-03   0.8174641E-03
  0.1145000E+03   0.8499520E-03   0.8704478E-03   0.8544561E-03
  0.1155000E+03   0.8860553E-03   0.9104170E-03   0.8924306E-03
  0.1165000E+03   0.9230671E-03   0.9514188E-03   0.9313802E-03
  0.1175000E+03   0.9609805E-03   0.9934403E-03   0.9712958E-03
  0.1185000E+03   0.9997871E-03   0.1036467E-02   0.1012167E-02
  0.1195000E+03   0.1039477E-02   0.1080482E-02   0.1053982E-02
  0.1205000E+03   0.1080040E-02   0.1125467E-02   0.1096726E-02
  0.1215000E+03   0.1121464E-02   0.1171403E-02   0.1140385E-02
  0.1225000E+03   0.1163734E-02   0.1218267E-02   0.1184942E-02
  0.1235000E+03   0.1206837E-02   0.1266037E-02   0.1230378E-02
  0.1245000E+03   0.1250756E-02   0.1314686E-02   0.1276674E-02
  0.1255000E+03   0.1295474E-02   0.1364188E-02   0.1323808E-02
  0.1265000E+03   0.1340972E-02   0.1414516E-02   0.1371758E-02
  0.1275000E+03   0.1387231E-02   0.1465639E-02   0.1420500E-02
  0.1285000E+03   0.1434231E-02   0.1517525E-02   0.1470008E-02
  0.1295000E+03   0.1481949E-02   0.1570144E-02   0.1520255E-02
  0.1305000E+03   0.1530362E-02   0.1623460E-02   0.1571213E-02
  0.1315000E+03   0.1579447E-02   0.1677439E-02   0.1622854E-02
  0.1325000E+03   0.1629178E-02   0.1732045E-02   0.1675146E-02
  0.1335000E+03   0.1679530E-02   0.1787241E-02   0.1728058E-02
  0.1345000E+03   0.1730476E-02   0.1842987E-02   0.1781557E-02
  0.1355000E+03   0.1781987E-02   0.1899246E-02   0.1835611E-02
  0.1365000E+03   0.1834036E-02   0.1955978E-02   0.1890184E-02
  0.1375000E+03   0.1886593E-02   0.2013140E-02   0.1945240E-02
  0.1385000E+03   0.1939627E-02   0.2070693E-02   0.2000745E-02
  0.1395000E+03   0.1993108E-02   0.2128595E-02   0.2056660E-02
  0.1405000E+03   0.2047004E-02   0.2186802E-02   0.2112948E-02
  0.1415000E+03   0.2101282E-02   0.2245272E-02   0.2169571E-02
  0.1425000E+03   0.2155911E-02   0.2303962E-02   0.2226490E-02
  0.1435000E+03   0.2210856E-02   0.2362828E-02   0.2283665E-02
  0.1445000E+03   0.2266084E-02   0.2421827E-02   0.2341058E-02
  0.1455000E+03   0.2321560E-02   0.2480914E-02   0.2398628E-02
  0.1465000E+03   0.2377250E-02   0.2540047E-02   0.2456334E-02
  0.1475000E+03   0.2433118E-02   0.2599180E-02   0.2514137E-02
  0.1485000E+03   0.2489129E-02   0.2658271E-02   0.2571995E-02
  0.1495000E+03   0.2545248E-02   0.2717277E-02   0.2629868E-02
  0.1505000E+03   0.2601438E-02   0.2776153E-02   0.2687716E-02
  0.1515000E+03   0.2657663E-02   0.2834857E-02   0.2745497E-02
  0.1525000E+03   0.2713888E-02   0.2893346E-02   0.2803172E-02
  0.1535000E+03   0.2770076E-02   0.2951579E-02   0.2860700E-02
  0.1545000E+03   0.2826190E-02   0.3009514E-02   0.2918042E-02
  0.1555000E+03   0.2882195E-02   0.3067110E-02   0.2975157E-02
  0.1565000E+03   0.2938055E-02   0.3124327E-02   0.3032006E-02
  0.1575000E+03   0.2993733E-02   0.3181125E-02   0.3088551E-02
  0.1585000E+03   0.3049194E-02   0.3237466E-02   0.3144753E-02
  0.1595000E+03   0.3104402E-02   0.3293310E-02   0.3200575E-02
  0.1605000E+03   0.3159321E-02   0.3348622E-02   0.3255980E-02
  0.1615000E+03   0.3213918E-02   0.3403364E-02   0.3310930E-02
  0.1625000E+03   0.3268156E-02   0.3457502E-02   0.3365391E-02
  0.1635000E+03   0.3322003E-02   0.3511001E-02   0.3419327E-02
  0.1645000E+03   0.3375424E-02   0.3563826E-02   0.3472704E-02
  0.1655000E+03   0.3428385E-02   0.3615947E-02   0.3525488E-02
  0.1665000E+03   0.3480855E-02   0.3667331E-02   0.3577648E-02
  0.1675000E+03   0.3532801E-02   0.3717949E-02   0.3629151E-02
  0.1685000E+03   0.3584191E-02   0.3767770E-02   0.3679966E-02
  0.1695000E+03   0.3634995E-02   0.3816767E-02   0.3730065E-02
  0.1705000E+03   0.3685182E-02   0.3864914E-02   0.3779417E-02
  0.1715000E+03   0.3734723E-02   0.3912183E-02   0.3827996E-02
  0.1725000E+03   0.3783590E-02   0.3958552E-02   0.3875775E-02
  0.1735000E+03   0.3831753E-02   0.4003995E-02   0.3922728E-02
  0.1745000E+03   0.3879186E-02   0.4048492E-02   0.3968830E-02
  0.1755000E+03   0.3925863E-02   0.4092021E-02   0.4014058E-02
  0.1765000E+03   0.3971759E-02   0.4134562E-02   0.4058390E-02
  0.1775000E+03   0.4016848E-02   0.4176097E-02   0.4101803E-02
  0.1785000E+03   0.4061108E-02   0.4216609E-02   0.4144279E-02
  0.1795000E+03   0.4104515E-02   0.4256081E-02   0.4185798E-02
  0.1805000E+03   0.4147048E-02   0.4294499E-02   0.4226342E-02
  0.1815000E+03   0.4188687E-02   0.4331848E-02   0.4265894E-02
  0.1825000E+03   0.4229410E-02   0.4368117E-02   0.4304439E-02
  0.1835000E+03   0.4269201E-02   0.4403293E-02   0.4341962E-02
  0.1845000E+03   0.4308040E-02   0.4437368E-02   0.4378450E-02
  0.1855000E+03   0.4345912E-02   0.4470331E-02   0.4413890E-02
  0.1865000E+03   0.4382801E-02   0.4502175E-02   0.4448271E-02
  0.1875000E+03   0.4418692E-02   0.4532894E-02   0.4481583E-02
  0.1885000E+03   0.4453571E-02   0.4562481E-02   0.4513817E-02
  0.1895000E+03   0.4487426E-02   0.4590932E-02   0.4544966E-02
  0.1905000E+03   0.4520246E-02   0.4618244E-02   0.4575021E-02
  0.1915000E+03   0.4552020E-02   0.4644414E-02   0.4603979E-02
  0.1925000E+03   0.4582738E-02   0.4669442E-02   0.4631833E-02
  0.1935000E+03   0.4612393E-02   0.4693326E-02   0.4658580E-02
  0.1945000E+03   0.4640977E-02   0.4716067E-02   0.4684217E-02
  0.1955000E+03   0.4668483E-02   0.4737667E-02   0.4708742E-02
  0.1965000E+03   0.4694907E-02   0.4758128E-02   0.4732155E-02
  0.1975000E+03   0.4720244E-02   0.4777454E-02   0.4754455E-02
  0.1985000E+03   0.4744490E-02   0.4795650E-02   0.4775644E-02
  0.1995000E+03   0.4767644E-02   0.4812719E-02   0.4795724E-02
  0.2005000E+03   0.4789703E-02   0.4828669E-02   0.4814697E-02
  0.2015000E+03   0.4810668E-02   0.4843506E-02   0.4832566E-02
  0.2025000E+03   0.4830538E-02   0.4857237E-02   0.4849336E-02
  0.2035000E+03   0.4849315E-02   0.4869872E-02   0.4865013E-02
  0.2045000E+03   0.4867002E-02   0.4881418E-02   0.4879602E-02
  0.2055000E+03   0.4883601E-02   0.4893110E-02   0.4893110E-02
  0.2065000E+03   0.4899116E-02   0.4905544E-02   0.4905544E-02
  0.2075000E+03   0.4909627E-02   0.4916913E-02   0.4916913E-02
  0.2085000E+03   0.4916923E-02   0.4927224E-02   0.4927224E-02
  0.2095000E+03   0.4923186E-02   0.4939207E-02   0.4936488E-02
  0.2105000E+03   0.4928428E-02   0.4950440E-02   0.4944714E-02
  0.2115000E+03   0.4932661E-02   0.4960620E-02   0.4951913E-02
  0.2125000E+03   0.4935900E-02   0.4969755E-02   0.4958096E-02
  0.2135000E+03   0.4938159E-02   0.4977855E-02   0.4963274E-02
  0.2145000E+03   0.4939452E-02   0.4984928E-02   0.4967460E-02
  0.2155000E+03   0.4939793E-02   0.4990985E-02   0.4970665E-02
  0.2165000E+03   0.4939199E-02   0.4996037E-02   0.4972904E-02
  0.2175000E+03   0.4937684E-02   0.5000095E-02   0.4974189E-02
  0.2185000E+03   0.4935264E-02   0.5003171E-02   0.4974534E-02
  0.2195000E+03   0.4931955E-02   0.5005277E-02   0.4973954E-02
  0.2205000E+03   0.4927775E-02   0.5006426E-02   0.4972462E-02
  0.2215000E+03   0.4922739E-02   0.5006632E-02   0.4970074E-02
  0.2225000E+03   0.4916864E-02   0.5005907E-02   0.4966805E-02
  0.2235000E+03   0.4910166E-02   0.5004266E-02   0.4962669E-02
  0.2245000E+03   0.4902665E-02   0.5001723E-02   0.4957684E-02
  0.2255000E+03   0.4894375E-02   0.4998293E-02   0.4951863E-02
  0.2265000E+03   0.4885316E-02   0.4993991E-02   0.4945225E-02
  0.2275000E+03   0.4875504E-02   0.4988833E-02   0.4937784E-02
  0.2285000E+03   0.4864956E-02   0.4982833E-02   0.4929557E-02
  0.2295000E+03   0.4853692E-02   0.4976008E-02   0.4920560E-02
  0.2305000E+03   0.4841727E-02   0.4968374E-02   0.4910811E-02
  0.2315000E+03   0.4829080E-02   0.4959947E-02   0.4900326E-02
  0.2325000E+03   0.4815768E-02   0.4950743E-02   0.4889122E-02
  0.2335000E+03   0.4801810E-02   0.4940778E-02   0.4877215E-02
  0.2345000E+03   0.4787222E-02   0.4930071E-02   0.4864622E-02
  0.2355000E+03   0.4772022E-02   0.4918636E-02   0.4851361E-02
  0.2365000E+03   0.4756228E-02   0.4906491E-02   0.4837448E-02
  0.2375000E+03   0.4739857E-02   0.4893653E-02   0.4822901E-02
  0.2385000E+03   0.4722927E-02   0.4880139E-02   0.4807735E-02
  0.2395000E+03   0.4705453E-02   0.4865965E-02   0.4791969E-02
  0.2405000E+03   0.4687455E-02   0.4851149E-02   0.4775618E-02
  0.2415000E+03   0.4668948E-02   0.4835708E-02   0.4758701E-02
  0.2425000E+03   0.4649950E-02   0.4819658E-02   0.4741232E-02
  0.2435000E+03   0.4630476E-02   0.4803017E-02   0.4723230E-02
  0.2445000E+03   0.4610544E-02   0.4785801E-02   0.4704710E-02
  0.2455000E+03   0.4590170E-02   0.4768027E-02   0.4685688E-02
  0.2465000E+03   0.4569370E-02   0.4749712E-02   0.4666182E-02
  0.2475000E+03   0.4548160E-02   0.4730872E-02   0.4646207E-02
  0.2485000E+03   0.4526555E-02   0.4711524E-02   0.4625780E-02
  0.2495000E+03   0.4504572E-02   0.4691684E-02   0.4604915E-02
  0.2505000E+03   0.4482225E-02   0.4671368E-02   0.4583629E-02
  0.2515000E+03   0.4459530E-02   0.4650594E-02   0.4561937E-02
  0.2525000E+03   0.4436501E-02   0.4629375E-02   0.4539855E-02
  0.2535000E+03   0.4413154E-02   0.4607730E-02   0.4517398E-02
  0.2545000E+03   0.4389503E-02   0.4585672E-02   0.4494581E-02
  0.2555000E+03   0.4365561E-02   0.4563217E-02   0.4471418E-02
  0.2565000E+03   0.4341343E-02   0.4540381E-02   0.4447925E-02
  0.2575000E+03   0.4316863E-02   0.4517179E-02   0.4424115E-02
  0.2585000E+03   0.4292134E-02   0.4493626E-02   0.4400002E-02
  0.2595000E+03   0.4267170E-02   0.4469736E-02   0.4375601E-02
  0.2605000E+03   0.4241983E-02   0.4445524E-02   0.4350926E-02
  0.2615000E+03   0.4216586E-02   0.4421005E-02   0.4325990E-02
  0.2625000E+03   0.4190992E-02   0.4396191E-02   0.4300806E-02
  0.2635000E+03   0.4165212E-02   0.4371098E-02   0.4275387E-02
  0.2645000E+03   0.4139259E-02   0.4345738E-02   0.4249746E-02
  0.2655000E+03   0.4113145E-02   0.4320126E-02   0.4223896E-02
  0.2665000E+03   0.4086881E-02   0.4294274E-02   0.4197849E-02
  0.2675000E+03   0.4060479E-02   0.4268195E-02   0.4171618E-02
  0.2685000E+03   0.4033948E-02   0.4241903E-02   0.4145213E-02
  0.2695000E+03   0.4007301E-02   0.4215409E-02   0.4118648E-02
  0.2705000E+03   0.3980547E-02   0.4188725E-02   0.4091932E-02
  0.2715000E+03   0.3953697E-02   0.4161865E-02   0.4065079E-02
  0.2725000E+03   0.3926761E-02   0.4134839E-02   0.4038097E-02
  0.2735000E+03   0.3899748E-02   0.4107659E-02   0.4010999E-02
  0.2745000E+03   0.3872668E-02   0.4080336E-02   0.3983794E-02
  0.2755000E+03   0.3845530E-02   0.4052882E-02   0.3956493E-02
  0.2765000E+03   0.3818343E-02   0.4025307E-02   0.3929105E-02
  0.2775000E+03   0.3791116E-02   0.3997622E-02   0.3901641E-02
  0.2785000E+03   0.3763858E-02   0.3969837E-02   0.3874111E-02
  0.2795000E+03   0.3736577E-02   0.3941962E-02   0.3846522E-02
  0.2805000E+03   0.3709280E-02   0.3914008E-02   0.3818885E-02
  0.2815000E+03   0.3681976E-02   0.3885983E-02   0.3791209E-02
  0.2825000E+03   0.3654672E-02   0.3857898E-02   0.3763501E-02
  0.2835000E+03   0.3627376E-02   0.3829761E-02   0.3735770E-02
  0.2845000E+03   0.3600095E-02   0.3801581E-02   0.3708025E-02
  0.2855000E+03   0.3572835E-02   0.3773367E-02   0.3680272E-02
  0.2865000E+03   0.3545604E-02   0.3745128E-02   0.3652521E-02
  0.2875000E+03   0.3518408E-02   0.3716871E-02   0.3624779E-02
  0.2885000E+03   0.3491254E-02   0.3688605E-02   0.3597052E-02
  0.2895000E+03   0.3464147E-02   0.3660339E-02   0.3569348E-02
  0.2905000E+03   0.3437093E-02   0.3632078E-02   0.3541673E-02
  0.2915000E+03   0.3410098E-02   0.3603831E-02   0.3514035E-02
  0.2925000E+03   0.3383169E-02   0.3575605E-02   0.3486439E-02
  0.2935000E+03   0.3356309E-02   0.3547407E-02   0.3458893E-02
  0.2945000E+03   0.3329524E-02   0.3519243E-02   0.3431401E-02
  0.2955000E+03   0.3302819E-02   0.3491121E-02   0.3403970E-02
  0.2965000E+03   0.3276200E-02   0.3463046E-02   0.3376605E-02
  0.2975000E+03   0.3249669E-02   0.3435025E-02   0.3349313E-02
  0.2985000E+03   0.3223233E-02   0.3407064E-02   0.3322097E-02
  0.2995000E+03   0.3196895E-02   0.3379168E-02   0.3294964E-02
  0.3005000E+03   0.3170660E-02   0.3351344E-02   0.3267918E-02
  0.3015000E+03   0.3144530E-02   0.3323596E-02   0.3240964E-02
  0.3025000E+03   0.3118511E-02   0.3295929E-02   0.3214106E-02
  0.3035000E+03   0.3092605E-02   0.3268350E-02   0.3187349E-02
  0.3045000E+03   0.3066817E-02   0.3240863E-02   0.3160697E-02
  0.3055000E+03   0.3041149E-02   0.3213472E-02   0.3134154E-02
  0.3065000E+03   0.3015604E-02   0.3186181E-02   0.3107724E-02
  0.3075000E+03   0.2990187E-02   0.3158997E-02   0.3081411E-02
  0.3085000E+03   0.2964899E-02   0.3131922E-02   0.3055218E-02
  0.3095000E+03   0.2939743E-02   0.3104960E-02   0.3029149E-02
  0.3105000E+03   0.2914723E-02   0.3078116E-02   0.3003206E-02
