             #w        R(w)_min        R(w)_max        R(w)_avg
  0.5000000E+00  -0.7784806E-07  -0.2815411E-09  -0.1188910E-07
  0.1500000E+01  -0.7616569E-07  -0.2616429E-09  -0.1135035E-07
  0.2500000E+01  -0.7457676E-07  -0.2439695E-09  -0.1084683E-07
  0.3500000E+01  -0.7307072E-07  -0.2281960E-09  -0.1037580E-07
  0.4500000E+01  -0.7163891E-07  -0.2140561E-09  -0.9934790E-08
  0.5500000E+01  -0.7027422E-07  -0.2013294E-09  -0.9521512E-08
  0.6500000E+01  -0.6897075E-07  -0.1898327E-09  -0.9133897E-08
  0.7500000E+01  -0.6772362E-07  -0.1794120E-09  -0.8770050E-08
  0.8500000E+01  -0.6652873E-07  -0.1699375E-09  -0.8428239E-08
  0.9500000E+01  -0.6538262E-07  -0.1612987E-09  -0.8106876E-08
  0.1050000E+02  -0.6428235E-07  -0.1534015E-09  -0.7804505E-08
  0.1150000E+02  -0.6322539E-07  -0.1461646E-09  -0.7519793E-08
  0.1250000E+02  -0.6220954E-07  -0.1395181E-09  -0.7251512E-08
  0.1350000E+02  -0.6123286E-07  -0.1334011E-09  -0.6998536E-08
  0.1450000E+02  -0.6029362E-07  -0.1277604E-09  -0.6759828E-08
  0.1550000E+02  -0.5939024E-07  -0.1225495E-09  -0.6534432E-08
  0.1650000E+02  -0.5852130E-07  -0.1177275E-09  -0.6321467E-08
  0.1750000E+02  -0.5768547E-07  -0.1132582E-09  -0.6120122E-08
  0.1850000E+02  -0.5688152E-07  -0.1091094E-09  -0.5929645E-08
  0.1950000E+02  -0.5610826E-07  -0.1052527E-09  -0.5749342E-08
  0.2050000E+02  -0.5536461E-07  -0.1016625E-09  -0.5578573E-08
  0.2150000E+02  -0.5464949E-07  -0.9831612E-10  -0.5416743E-08
  0.2250000E+02  -0.5396189E-07  -0.9519304E-10  -0.5263302E-08
  0.2350000E+02  -0.5330084E-07  -0.9227488E-10  -0.5117738E-08
  0.2450000E+02  -0.5266538E-07  -0.8954505E-10  -0.4979578E-08
  0.2550000E+02  -0.5205461E-07  -0.8698858E-10  -0.4848382E-08
  0.2650000E+02  -0.5146765E-07  -0.8459188E-10  -0.4723741E-08
  0.2750000E+02  -0.5090364E-07  -0.8234266E-10  -0.4605274E-08
  0.2850000E+02  -0.5036175E-07  -0.8022974E-10  -0.4492626E-08
  0.2950000E+02  -0.4984118E-07  -0.7824294E-10  -0.4385468E-08
  0.3050000E+02  -0.4934117E-07  -0.7637299E-10  -0.4283491E-08
  0.3150000E+02  -0.4886097E-07  -0.7461143E-10  -0.4186409E-08
  0.3250000E+02  -0.4839986E-07  -0.7295052E-10  -0.4093954E-08
  0.3350000E+02  -0.4795714E-07  -0.7138320E-10  -0.4005874E-08
  0.3450000E+02  -0.4753214E-07  -0.6990297E-10  -0.3921936E-08
  0.3550000E+02  -0.4712423E-07  -0.6850390E-10  -0.3841921E-08
  0.3650000E+02  -0.4673279E-07  -0.6718052E-10  -0.3765624E-08
  0.3750000E+02  -0.4635722E-07  -0.6592781E-10  -0.3692852E-08
  0.3850000E+02  -0.4599696E-07  -0.6474118E-10  -0.3623426E-08
  0.3950000E+02  -0.4565147E-07  -0.6361636E-10  -0.3557177E-08
  0.4050000E+02  -0.4532022E-07  -0.6254945E-10  -0.3493947E-08
  0.4150000E+02  -0.4500272E-07  -0.6153683E-10  -0.3433587E-08
  0.4250000E+02  -0.4469850E-07  -0.6057519E-10  -0.3375957E-08
  0.4350000E+02  -0.4440710E-07  -0.5966142E-10  -0.3320926E-08
  0.4450000E+02  -0.4412808E-07  -0.5879271E-10  -0.3268370E-08
  0.4550000E+02  -0.4386105E-07  -0.5796641E-10  -0.3218174E-08
  0.4650000E+02  -0.4360560E-07  -0.5718009E-10  -0.3170228E-08
  0.4750000E+02  -0.4336136E-07  -0.5643149E-10  -0.3124430E-08
  0.4850000E+02  -0.4312798E-07  -0.5571852E-10  -0.3080681E-08
  0.4950000E+02  -0.4290512E-07  -0.5503925E-10  -0.3038891E-08
  0.5050000E+02  -0.4269246E-07  -0.5439187E-10  -0.2998973E-08
  0.5150000E+02  -0.4248968E-07  -0.5377471E-10  -0.2960846E-08
  0.5250000E+02  -0.4229650E-07  -0.5318621E-10  -0.2924433E-08
  0.5350000E+02  -0.4211265E-07  -0.5262493E-10  -0.2889661E-08
  0.5450000E+02  -0.4193784E-07  -0.5208952E-10  -0.2856462E-08
  0.5550000E+02  -0.4177185E-07  -0.5157873E-10  -0.2824771E-08
  0.5650000E+02  -0.4161442E-07  -0.5109138E-10  -0.2794527E-08
  0.5750000E+02  -0.4146532E-07  -0.5062639E-10  -0.2765670E-08
  0.5850000E+02  -0.4132435E-07  -0.5018274E-10  -0.2738148E-08
  0.5950000E+02  -0.4119129E-07  -0.4975947E-10  -0.2711906E-08
  0.6050000E+02  -0.4106594E-07  -0.4935569E-10  -0.2686897E-08
  0.6150000E+02  -0.4094812E-07  -0.4897057E-10  -0.2663074E-08
  0.6250000E+02  -0.4083765E-07  -0.4860334E-10  -0.2640392E-08
  0.6350000E+02  -0.4073434E-07  -0.4825325E-10  -0.2618809E-08
  0.6450000E+02  -0.4063805E-07  -0.4791962E-10  -0.2598285E-08
  0.6550000E+02  -0.4054860E-07  -0.4760181E-10  -0.2578784E-08
  0.6650000E+02  -0.4046586E-07  -0.4729921E-10  -0.2560268E-08
  0.6750000E+02  -0.4038966E-07  -0.4701124E-10  -0.2542704E-08
  0.6850000E+02  -0.4031987E-07  -0.4673738E-10  -0.2526060E-08
  0.6950000E+02  -0.4025637E-07  -0.4647712E-10  -0.2510305E-08
  0.7050000E+02  -0.4019901E-07  -0.4622998E-10  -0.2495409E-08
  0.7150000E+02  -0.4014768E-07  -0.4599550E-10  -0.2481346E-08
  0.7250000E+02  -0.4010225E-07  -0.4577327E-10  -0.2468088E-08
  0.7350000E+02  -0.4006260E-07  -0.4556288E-10  -0.2455611E-08
  0.7450000E+02  -0.4002864E-07  -0.4536394E-10  -0.2443890E-08
  0.7550000E+02  -0.4000024E-07  -0.4517610E-10  -0.2432904E-08
  0.7650000E+02  -0.3997730E-07  -0.4499901E-10  -0.2422630E-08
  0.7750000E+02  -0.3995973E-07  -0.4483235E-10  -0.2413048E-08
  0.7850000E+02  -0.3994741E-07  -0.4467582E-10  -0.2404139E-08
  0.7950000E+02  -0.3994027E-07  -0.4452910E-10  -0.2395884E-08
  0.8050000E+02  -0.3993820E-07  -0.4439193E-10  -0.2388264E-08
  0.8150000E+02  -0.3994112E-07  -0.4426404E-10  -0.2381265E-08
  0.8250000E+02  -0.3994893E-07  -0.4414518E-10  -0.2374868E-08
  0.8350000E+02  -0.3996156E-07  -0.4403509E-10  -0.2369059E-08
  0.8450000E+02  -0.3997891E-07  -0.4393356E-10  -0.2363824E-08
  0.8550000E+02  -0.4000092E-07  -0.4384036E-10  -0.2359149E-08
  0.8650000E+02  -0.4002750E-07  -0.4375529E-10  -0.2355019E-08
  0.8750000E+02  -0.4005857E-07  -0.4367813E-10  -0.2351424E-08
  0.8850000E+02  -0.4009406E-07  -0.4360869E-10  -0.2348350E-08
  0.8950000E+02  -0.4013391E-07  -0.4354680E-10  -0.2345786E-08
  0.9050000E+02  -0.4017803E-07  -0.4349228E-10  -0.2343722E-08
  0.9150000E+02  -0.4022636E-07  -0.4344495E-10  -0.2342147E-08
  0.9250000E+02  -0.4027883E-07  -0.4340466E-10  -0.2341050E-08
  0.9350000E+02  -0.4033538E-07  -0.4337124E-10  -0.2340424E-08
  0.9450000E+02  -0.4039594E-07  -0.4334456E-10  -0.2340258E-08
  0.9550000E+02  -0.4046045E-07  -0.4332447E-10  -0.2340545E-08
  0.9650000E+02  -0.4052885E-07  -0.4331083E-10  -0.2341275E-08
  0.9750000E+02  -0.4060108E-07  -0.4330351E-10  -0.2342442E-08
  0.9850000E+02  -0.4067709E-07  -0.4330239E-10  -0.2344037E-08
  0.9950000E+02  -0.4075681E-07  -0.4330735E-10  -0.2346055E-08
  0.1005000E+03  -0.4084020E-07  -0.4331827E-10  -0.2348487E-08
  0.1015000E+03  -0.4092719E-07  -0.4333503E-10  -0.2351329E-08
  0.1025000E+03  -0.4101775E-07  -0.4335755E-10  -0.2354573E-08
  0.1035000E+03  -0.4111181E-07  -0.4338570E-10  -0.2358214E-08
  0.1045000E+03  -0.4120933E-07  -0.4341941E-10  -0.2362246E-08
  0.1055000E+03  -0.4131026E-07  -0.4345857E-10  -0.2366665E-08
  0.1065000E+03  -0.4141456E-07  -0.4350309E-10  -0.2371465E-08
  0.1075000E+03  -0.4152217E-07  -0.4355290E-10  -0.2376642E-08
  0.1085000E+03  -0.4163306E-07  -0.4360791E-10  -0.2382191E-08
  0.1095000E+03  -0.4174719E-07  -0.4366804E-10  -0.2388107E-08
  0.1105000E+03  -0.4186451E-07  -0.4373322E-10  -0.2394388E-08
  0.1115000E+03  -0.4198498E-07  -0.4380339E-10  -0.2401029E-08
  0.1125000E+03  -0.4210856E-07  -0.4387846E-10  -0.2408027E-08
  0.1135000E+03  -0.4223523E-07  -0.4395839E-10  -0.2415377E-08
  0.1145000E+03  -0.4236493E-07  -0.4404310E-10  -0.2423078E-08
  0.1155000E+03  -0.4249764E-07  -0.4413255E-10  -0.2431126E-08
  0.1165000E+03  -0.4263332E-07  -0.4422668E-10  -0.2439517E-08
  0.1175000E+03  -0.4277194E-07  -0.4432543E-10  -0.2448250E-08
  0.1185000E+03  -0.4291347E-07  -0.4442877E-10  -0.2457322E-08
  0.1195000E+03  -0.4305787E-07  -0.4453664E-10  -0.2466730E-08
  0.1205000E+03  -0.4320512E-07  -0.4464900E-10  -0.2476472E-08
  0.1215000E+03  -0.4335520E-07  -0.4476581E-10  -0.2486546E-08
  0.1225000E+03  -0.4350806E-07  -0.4488703E-10  -0.2496951E-08
  0.1235000E+03  -0.4366369E-07  -0.4501264E-10  -0.2507683E-08
  0.1245000E+03  -0.4382206E-07  -0.4514259E-10  -0.2518742E-08
  0.1255000E+03  -0.4398315E-07  -0.4527686E-10  -0.2530127E-08
  0.1265000E+03  -0.4414694E-07  -0.4541542E-10  -0.2541834E-08
  0.1275000E+03  -0.4431339E-07  -0.4555824E-10  -0.2553864E-08
  0.1285000E+03  -0.4448250E-07  -0.4570531E-10  -0.2566214E-08
  0.1295000E+03  -0.4465423E-07  -0.4585659E-10  -0.2578885E-08
  0.1305000E+03  -0.4482858E-07  -0.4601208E-10  -0.2591874E-08
  0.1315000E+03  -0.4500552E-07  -0.4617175E-10  -0.2605180E-08
  0.1325000E+03  -0.4518503E-07  -0.4633559E-10  -0.2618804E-08
  0.1335000E+03  -0.4536710E-07  -0.4650358E-10  -0.2632743E-08
  0.1345000E+03  -0.4555171E-07  -0.4667573E-10  -0.2646998E-08
  0.1355000E+03  -0.4573884E-07  -0.4685201E-10  -0.2661568E-08
  0.1365000E+03  -0.4592849E-07  -0.4703242E-10  -0.2676452E-08
  0.1375000E+03  -0.4612063E-07  -0.4721696E-10  -0.2691649E-08
  0.1385000E+03  -0.4631526E-07  -0.4740562E-10  -0.2707160E-08
  0.1395000E+03  -0.4651236E-07  -0.4759839E-10  -0.2722985E-08
  0.1405000E+03  -0.4671192E-07  -0.4779529E-10  -0.2739122E-08
  0.1415000E+03  -0.4691392E-07  -0.4799630E-10  -0.2755572E-08
  0.1425000E+03  -0.4711836E-07  -0.4820144E-10  -0.2772334E-08
  0.1435000E+03  -0.4732523E-07  -0.4841071E-10  -0.2789409E-08
  0.1445000E+03  -0.4753452E-07  -0.4862410E-10  -0.2806797E-08
  0.1455000E+03  -0.4774622E-07  -0.4884164E-10  -0.2824497E-08
  0.1465000E+03  -0.4796031E-07  -0.4906333E-10  -0.2842511E-08
  0.1475000E+03  -0.4817680E-07  -0.4928917E-10  -0.2860837E-08
  0.1485000E+03  -0.4839567E-07  -0.4951918E-10  -0.2879477E-08
  0.1495000E+03  -0.4861692E-07  -0.4975337E-10  -0.2898430E-08
  0.1505000E+03  -0.4884053E-07  -0.4999176E-10  -0.2917697E-08
  0.1515000E+03  -0.4906652E-07  -0.5023436E-10  -0.2937279E-08
  0.1525000E+03  -0.4929486E-07  -0.5048118E-10  -0.2957175E-08
  0.1535000E+03  -0.4952555E-07  -0.5073225E-10  -0.2977387E-08
  0.1545000E+03  -0.4975859E-07  -0.5098757E-10  -0.2997914E-08
  0.1555000E+03  -0.4999397E-07  -0.5124718E-10  -0.3018758E-08
  0.1565000E+03  -0.5023169E-07  -0.5151109E-10  -0.3039919E-08
  0.1575000E+03  -0.5047175E-07  -0.5177932E-10  -0.3061398E-08
  0.1585000E+03  -0.5071413E-07  -0.5205189E-10  -0.3083194E-08
  0.1595000E+03  -0.5095884E-07  -0.5232883E-10  -0.3105310E-08
  0.1605000E+03  -0.5120586E-07  -0.5261016E-10  -0.3127746E-08
  0.1615000E+03  -0.5145521E-07  -0.5289590E-10  -0.3150503E-08
  0.1625000E+03  -0.5170687E-07  -0.5318609E-10  -0.3173580E-08
  0.1635000E+03  -0.5196085E-07  -0.5348074E-10  -0.3196981E-08
  0.1645000E+03  -0.5221713E-07  -0.5377990E-10  -0.3220704E-08
  0.1655000E+03  -0.5247572E-07  -0.5408357E-10  -0.3244752E-08
  0.1665000E+03  -0.5273661E-07  -0.5439181E-10  -0.3269125E-08
  0.1675000E+03  -0.5299981E-07  -0.5470462E-10  -0.3293823E-08
  0.1685000E+03  -0.5326530E-07  -0.5502205E-10  -0.3318849E-08
  0.1695000E+03  -0.5353309E-07  -0.5534413E-10  -0.3344204E-08
  0.1705000E+03  -0.5380317E-07  -0.5567088E-10  -0.3369887E-08
  0.1715000E+03  -0.5407554E-07  -0.5600235E-10  -0.3395901E-08
  0.1725000E+03  -0.5435021E-07  -0.5633856E-10  -0.3422246E-08
  0.1735000E+03  -0.5462716E-07  -0.5667955E-10  -0.3448923E-08
  0.1745000E+03  -0.5490640E-07  -0.5702535E-10  -0.3475935E-08
  0.1755000E+03  -0.5518792E-07  -0.5737601E-10  -0.3503281E-08
  0.1765000E+03  -0.5547172E-07  -0.5773155E-10  -0.3530963E-08
  0.1775000E+03  -0.5575781E-07  -0.5809201E-10  -0.3558983E-08
  0.1785000E+03  -0.5604617E-07  -0.5845744E-10  -0.3587342E-08
  0.1795000E+03  -0.5633680E-07  -0.5882786E-10  -0.3616040E-08
  0.1805000E+03  -0.5662971E-07  -0.5920332E-10  -0.3645079E-08
  0.1815000E+03  -0.5692489E-07  -0.5958387E-10  -0.3674461E-08
  0.1825000E+03  -0.5722235E-07  -0.5996952E-10  -0.3704187E-08
  0.1835000E+03  -0.5752207E-07  -0.6036034E-10  -0.3734257E-08
  0.1845000E+03  -0.5782405E-07  -0.6075636E-10  -0.3764674E-08
  0.1855000E+03  -0.5812830E-07  -0.6115762E-10  -0.3795439E-08
  0.1865000E+03  -0.5843481E-07  -0.6156416E-10  -0.3826554E-08
  0.1875000E+03  -0.5874358E-07  -0.6197603E-10  -0.3858018E-08
  0.1885000E+03  -0.5905460E-07  -0.6239327E-10  -0.3889835E-08
  0.1895000E+03  -0.5936788E-07  -0.6281593E-10  -0.3922006E-08
  0.1905000E+03  -0.5968341E-07  -0.6324405E-10  -0.3954531E-08
  0.1915000E+03  -0.6000119E-07  -0.6367767E-10  -0.3987413E-08
  0.1925000E+03  -0.6032122E-07  -0.6411685E-10  -0.4020652E-08
  0.1935000E+03  -0.6064350E-07  -0.6456163E-10  -0.4054251E-08
  0.1945000E+03  -0.6096801E-07  -0.6501205E-10  -0.4088211E-08
  0.1955000E+03  -0.6129476E-07  -0.6546817E-10  -0.4122533E-08
  0.1965000E+03  -0.6162375E-07  -0.6593003E-10  -0.4157219E-08
  0.1975000E+03  -0.6195498E-07  -0.6639768E-10  -0.4192270E-08
  0.1985000E+03  -0.6228843E-07  -0.6687117E-10  -0.4227689E-08
  0.1995000E+03  -0.6262411E-07  -0.6735056E-10  -0.4263476E-08
  0.2005000E+03  -0.6296202E-07  -0.6783588E-10  -0.4299633E-08
  0.2015000E+03  -0.6330214E-07  -0.6832721E-10  -0.4336161E-08
  0.2025000E+03  -0.6364449E-07  -0.6882458E-10  -0.4373063E-08
  0.2035000E+03  -0.6398905E-07  -0.6932805E-10  -0.4410340E-08
  0.2045000E+03  -0.6433582E-07  -0.6983768E-10  -0.4447993E-08
  0.2055000E+03  -0.6468480E-07  -0.7035351E-10  -0.4486025E-08
  0.2065000E+03  -0.6503598E-07  -0.7087561E-10  -0.4524435E-08
  0.2075000E+03  -0.6538937E-07  -0.7140403E-10  -0.4563228E-08
  0.2085000E+03  -0.6574495E-07  -0.7193882E-10  -0.4602403E-08
  0.2095000E+03  -0.6610273E-07  -0.7248005E-10  -0.4641963E-08
  0.2105000E+03  -0.6646269E-07  -0.7302776E-10  -0.4681909E-08
  0.2115000E+03  -0.6682485E-07  -0.7358203E-10  -0.4722242E-08
  0.2125000E+03  -0.6718918E-07  -0.7414290E-10  -0.4762966E-08
  0.2135000E+03  -0.6755570E-07  -0.7471044E-10  -0.4804080E-08
  0.2145000E+03  -0.6792439E-07  -0.7528471E-10  -0.4845588E-08
  0.2155000E+03  -0.6829525E-07  -0.7586577E-10  -0.4887490E-08
  0.2165000E+03  -0.6866828E-07  -0.7645369E-10  -0.4929788E-08
  0.2175000E+03  -0.6904347E-07  -0.7704852E-10  -0.4972485E-08
  0.2185000E+03  -0.6942082E-07  -0.7765033E-10  -0.5015581E-08
  0.2195000E+03  -0.6980032E-07  -0.7825918E-10  -0.5059078E-08
  0.2205000E+03  -0.7018198E-07  -0.7887514E-10  -0.5102979E-08
  0.2215000E+03  -0.7056578E-07  -0.7949828E-10  -0.5147284E-08
  0.2225000E+03  -0.7095173E-07  -0.8012867E-10  -0.5191995E-08
  0.2235000E+03  -0.7133981E-07  -0.8076636E-10  -0.5237115E-08
  0.2245000E+03  -0.7173003E-07  -0.8141144E-10  -0.5282645E-08
  0.2255000E+03  -0.7212237E-07  -0.8206396E-10  -0.5328587E-08
  0.2265000E+03  -0.7251685E-07  -0.8272401E-10  -0.5374942E-08
  0.2275000E+03  -0.7291344E-07  -0.8339165E-10  -0.5421712E-08
  0.2285000E+03  -0.7331215E-07  -0.8406695E-10  -0.5468899E-08
  0.2295000E+03  -0.7371297E-07  -0.8475000E-10  -0.5516504E-08
  0.2305000E+03  -0.7411590E-07  -0.8544085E-10  -0.5564530E-08
  0.2315000E+03  -0.7452094E-07  -0.8613960E-10  -0.5612978E-08
  0.2325000E+03  -0.7492807E-07  -0.8684630E-10  -0.5661850E-08
  0.2335000E+03  -0.7533730E-07  -0.8756105E-10  -0.5711147E-08
  0.2345000E+03  -0.7574863E-07  -0.8828392E-10  -0.5760872E-08
  0.2355000E+03  -0.7616203E-07  -0.8901499E-10  -0.5811026E-08
  0.2365000E+03  -0.7657752E-07  -0.8975434E-10  -0.5861611E-08
  0.2375000E+03  -0.7699509E-07  -0.9050205E-10  -0.5912628E-08
  0.2385000E+03  -0.7741474E-07  -0.9125820E-10  -0.5964080E-08
  0.2395000E+03  -0.7783645E-07  -0.9202287E-10  -0.6015968E-08
  0.2405000E+03  -0.7826022E-07  -0.9279616E-10  -0.6068293E-08
  0.2415000E+03  -0.7868606E-07  -0.9357815E-10  -0.6121059E-08
  0.2425000E+03  -0.7911396E-07  -0.9436892E-10  -0.6174266E-08
  0.2435000E+03  -0.7954391E-07  -0.9516856E-10  -0.6227916E-08
  0.2445000E+03  -0.7997590E-07  -0.9597716E-10  -0.6282010E-08
  0.2455000E+03  -0.8040995E-07  -0.9679481E-10  -0.6336552E-08
  0.2465000E+03  -0.8084603E-07  -0.9762160E-10  -0.6391542E-08
  0.2475000E+03  -0.8128415E-07  -0.9845762E-10  -0.6446982E-08
  0.2485000E+03  -0.8172430E-07  -0.9930297E-10  -0.6502875E-08
  0.2495000E+03  -0.8216648E-07  -0.1001577E-09  -0.6559221E-08
  0.2505000E+03  -0.8261068E-07  -0.1010220E-09  -0.6616022E-08
  0.2515000E+03  -0.8305690E-07  -0.1018959E-09  -0.6673281E-08
  0.2525000E+03  -0.8350514E-07  -0.1027796E-09  -0.6730999E-08
  0.2535000E+03  -0.8395539E-07  -0.1036730E-09  -0.6789177E-08
  0.2545000E+03  -0.8440765E-07  -0.1045763E-09  -0.6847818E-08
  0.2555000E+03  -0.8486192E-07  -0.1054897E-09  -0.6906923E-08
  0.2565000E+03  -0.8531818E-07  -0.1064132E-09  -0.6966495E-08
  0.2575000E+03  -0.8577645E-07  -0.1073469E-09  -0.7026534E-08
  0.2585000E+03  -0.8623670E-07  -0.1082909E-09  -0.7087042E-08
  0.2595000E+03  -0.8669895E-07  -0.1092454E-09  -0.7148022E-08
  0.2605000E+03  -0.8716318E-07  -0.1102104E-09  -0.7209475E-08
  0.2615000E+03  -0.8762939E-07  -0.1111860E-09  -0.7271403E-08
  0.2625000E+03  -0.8809759E-07  -0.1121725E-09  -0.7333807E-08
  0.2635000E+03  -0.8856776E-07  -0.1131698E-09  -0.7396689E-08
  0.2645000E+03  -0.8903990E-07  -0.1141781E-09  -0.7460051E-08
  0.2655000E+03  -0.8951400E-07  -0.1151975E-09  -0.7523895E-08
  0.2665000E+03  -0.8999008E-07  -0.1162281E-09  -0.7588222E-08
  0.2675000E+03  -0.9046811E-07  -0.1172701E-09  -0.7653035E-08
  0.2685000E+03  -0.9094811E-07  -0.1183235E-09  -0.7718334E-08
  0.2695000E+03  -0.9143006E-07  -0.1193886E-09  -0.7784122E-08
  0.2705000E+03  -0.9191395E-07  -0.1204653E-09  -0.7850400E-08
  0.2715000E+03  -0.9239980E-07  -0.1215538E-09  -0.7917170E-08
  0.2725000E+03  -0.9288760E-07  -0.1226543E-09  -0.7984434E-08
  0.2735000E+03  -0.9337733E-07  -0.1237669E-09  -0.8052193E-08
  0.2745000E+03  -0.9386901E-07  -0.1248917E-09  -0.8120450E-08
  0.2755000E+03  -0.9436262E-07  -0.1260288E-09  -0.8189205E-08
  0.2765000E+03  -0.9485816E-07  -0.1271784E-09  -0.8258460E-08
  0.2775000E+03  -0.9535563E-07  -0.1283406E-09  -0.8328218E-08
  0.2785000E+03  -0.9585503E-07  -0.1295156E-09  -0.8398480E-08
  0.2795000E+03  -0.9635635E-07  -0.1307034E-09  -0.8469247E-08
  0.2805000E+03  -0.9685960E-07  -0.1319042E-09  -0.8540521E-08
  0.2815000E+03  -0.9736476E-07  -0.1331181E-09  -0.8612304E-08
  0.2825000E+03  -0.9787184E-07  -0.1343454E-09  -0.8684598E-08
  0.2835000E+03  -0.9838082E-07  -0.1355860E-09  -0.8757404E-08
  0.2845000E+03  -0.9889172E-07  -0.1368403E-09  -0.8830724E-08
  0.2855000E+03  -0.9940453E-07  -0.1381082E-09  -0.8904559E-08
  0.2865000E+03  -0.9991924E-07  -0.1393900E-09  -0.8978911E-08
  0.2875000E+03  -0.1004358E-06  -0.1406859E-09  -0.9053782E-08
  0.2885000E+03  -0.1009544E-06  -0.1419958E-09  -0.9129173E-08
  0.2895000E+03  -0.1014748E-06  -0.1433201E-09  -0.9205087E-08
  0.2905000E+03  -0.1019971E-06  -0.1446589E-09  -0.9281524E-08
  0.2915000E+03  -0.1025212E-06  -0.1460122E-09  -0.9358486E-08
  0.2925000E+03  -0.1030473E-06  -0.1473804E-09  -0.9435975E-08
  0.2935000E+03  -0.1035753E-06  -0.1487634E-09  -0.9513993E-08
  0.2945000E+03  -0.1041051E-06  -0.1501616E-09  -0.9592540E-08
  0.2955000E+03  -0.1046368E-06  -0.1515750E-09  -0.9671620E-08
  0.2965000E+03  -0.1051704E-06  -0.1530038E-09  -0.9751232E-08
  0.2975000E+03  -0.1057059E-06  -0.1544482E-09  -0.9831379E-08
  0.2985000E+03  -0.1062432E-06  -0.1559083E-09  -0.9912063E-08
  0.2995000E+03  -0.1067825E-06  -0.1573843E-09  -0.9993284E-08
  0.3005000E+03  -0.1073235E-06  -0.1588764E-09  -0.1007505E-07
  0.3015000E+03  -0.1078665E-06  -0.1603848E-09  -0.1015735E-07
  0.3025000E+03  -0.1084113E-06  -0.1619096E-09  -0.1024019E-07
  0.3035000E+03  -0.1089580E-06  -0.1634509E-09  -0.1032358E-07
  0.3045000E+03  -0.1095065E-06  -0.1650091E-09  -0.1040751E-07
  0.3055000E+03  -0.1100569E-06  -0.1665841E-09  -0.1049200E-07
  0.3065000E+03  -0.1106091E-06  -0.1681763E-09  -0.1057703E-07
  0.3075000E+03  -0.1111632E-06  -0.1697858E-09  -0.1066261E-07
  0.3085000E+03  -0.1117191E-06  -0.1714128E-09  -0.1074874E-07
  0.3095000E+03  -0.1122769E-06  -0.1730575E-09  -0.1083542E-07
  0.3105000E+03  -0.1128365E-06  -0.1747200E-09  -0.1092266E-07
