             #w        R(w)_min        R(w)_max        R(w)_avg
  0.5000000E+00   0.1060304E-04   0.8876753E-03   0.1736118E-03
  0.1500000E+01   0.1960297E-04   0.1163553E-02   0.2580649E-03
  0.2500000E+01   0.3497217E-04   0.1504737E-02   0.3754592E-03
  0.3500000E+01   0.6032136E-04   0.1921125E-02   0.5352504E-03
  0.4500000E+01   0.1007770E-03   0.2422904E-02   0.7484511E-03
  0.5500000E+01   0.1633595E-03   0.3020330E-02   0.1027568E-02
  0.6500000E+01   0.2573546E-03   0.3723480E-02   0.1386451E-02
  0.7500000E+01   0.3946363E-03   0.4542006E-02   0.1840056E-02
  0.8500000E+01   0.5898978E-03   0.5484878E-02   0.2404113E-02
  0.9500000E+01   0.8607446E-03   0.6560127E-02   0.3094733E-02
  0.1050000E+02   0.1227610E-02   0.7774622E-02   0.3927937E-02
  0.1150000E+02   0.1713467E-02   0.9133856E-02   0.4919158E-02
  0.1250000E+02   0.2343317E-02   0.1064177E-01   0.6082719E-02
  0.1350000E+02   0.3143482E-02   0.1230061E-01   0.7431321E-02
  0.1450000E+02   0.4140694E-02   0.1411084E-01   0.8975566E-02
  0.1550000E+02   0.5361069E-02   0.1607107E-01   0.1072353E-01
  0.1650000E+02   0.6828983E-02   0.1817807E-01   0.1268042E-01
  0.1750000E+02   0.8565947E-02   0.2042677E-01   0.1484830E-01
  0.1850000E+02   0.1058954E-01   0.2281035E-01   0.1722593E-01
  0.1950000E+02   0.1291246E-01   0.2532036E-01   0.1980872E-01
  0.2050000E+02   0.1554175E-01   0.2794682E-01   0.2258875E-01
  0.2150000E+02   0.1847831E-01   0.3067842E-01   0.2555491E-01
  0.2250000E+02   0.2171651E-01   0.3350270E-01   0.2869313E-01
  0.2350000E+02   0.2524427E-01   0.3640622E-01   0.3198668E-01
  0.2450000E+02   0.2904320E-01   0.3937481E-01   0.3541649E-01
  0.2550000E+02   0.3308909E-01   0.4239375E-01   0.3896161E-01
  0.2650000E+02   0.3735256E-01   0.4544799E-01   0.4259957E-01
  0.2750000E+02   0.4179987E-01   0.4852234E-01   0.4630687E-01
  0.2850000E+02   0.4639382E-01   0.5160168E-01   0.5005939E-01
  0.2950000E+02   0.5109475E-01   0.5467114E-01   0.5383284E-01
  0.3050000E+02   0.5586155E-01   0.5771622E-01   0.5760312E-01
  0.3150000E+02   0.6065261E-01   0.6134672E-01   0.6134672E-01
  0.3250000E+02   0.6367824E-01   0.6542679E-01   0.6504104E-01
  0.3350000E+02   0.6656944E-01   0.7014421E-01   0.6866465E-01
  0.3450000E+02   0.6938499E-01   0.7476701E-01   0.7219755E-01
  0.3550000E+02   0.7211422E-01   0.7925996E-01   0.7562135E-01
  0.3650000E+02   0.7474744E-01   0.8359095E-01   0.7891942E-01
  0.3750000E+02   0.7727599E-01   0.8773135E-01   0.8207697E-01
  0.3850000E+02   0.7969224E-01   0.9165627E-01   0.8508109E-01
  0.3950000E+02   0.8198960E-01   0.9534465E-01   0.8792085E-01
  0.4050000E+02   0.8416249E-01   0.9877934E-01   0.9058717E-01
  0.4150000E+02   0.8620638E-01   0.1019470E+00   0.9307287E-01
  0.4250000E+02   0.8811768E-01   0.1048380E+00   0.9537256E-01
  0.4350000E+02   0.8989375E-01   0.1074462E+00   0.9748256E-01
  0.4450000E+02   0.9153283E-01   0.1097686E+00   0.9940078E-01
  0.4550000E+02   0.9303400E-01   0.1118053E+00   0.1011266E+00
  0.4650000E+02   0.9439713E-01   0.1135591E+00   0.1026609E+00
  0.4750000E+02   0.9562281E-01   0.1150351E+00   0.1040055E+00
  0.4850000E+02   0.9671227E-01   0.1162403E+00   0.1051637E+00
  0.4950000E+02   0.9766737E-01   0.1171837E+00   0.1061394E+00
  0.5050000E+02   0.9849051E-01   0.1178756E+00   0.1069377E+00
  0.5150000E+02   0.9918454E-01   0.1183275E+00   0.1075641E+00
  0.5250000E+02   0.9975276E-01   0.1185517E+00   0.1080250E+00
  0.5350000E+02   0.1001988E+00   0.1185613E+00   0.1083270E+00
  0.5450000E+02   0.1005267E+00   0.1183698E+00   0.1084774E+00
  0.5550000E+02   0.1007407E+00   0.1179908E+00   0.1084834E+00
  0.5650000E+02   0.1008451E+00   0.1174381E+00   0.1083528E+00
  0.5750000E+02   0.1008447E+00   0.1167255E+00   0.1080934E+00
  0.5850000E+02   0.1007440E+00   0.1158664E+00   0.1077128E+00
  0.5950000E+02   0.1005481E+00   0.1148739E+00   0.1072190E+00
  0.6050000E+02   0.1002617E+00   0.1137609E+00   0.1066197E+00
  0.6150000E+02   0.9988969E-01   0.1125397E+00   0.1059225E+00
  0.6250000E+02   0.9943703E-01   0.1112221E+00   0.1051348E+00
  0.6350000E+02   0.9890855E-01   0.1098191E+00   0.1042640E+00
  0.6450000E+02   0.9830905E-01   0.1083416E+00   0.1033172E+00
  0.6550000E+02   0.9764323E-01   0.1067994E+00   0.1023010E+00
  0.6650000E+02   0.9691572E-01   0.1052020E+00   0.1012222E+00
  0.6750000E+02   0.9613104E-01   0.1035581E+00   0.1000870E+00
  0.6850000E+02   0.9529359E-01   0.1018759E+00   0.9890136E-01
  0.6950000E+02   0.9440761E-01   0.1001629E+00   0.9767106E-01
  0.7050000E+02   0.9347723E-01   0.9842609E-01   0.9640149E-01
  0.7150000E+02   0.9250643E-01   0.9667185E-01   0.9509778E-01
  0.7250000E+02   0.9149901E-01   0.9490605E-01   0.9376477E-01
  0.7350000E+02   0.9045864E-01   0.9313401E-01   0.9240700E-01
  0.7450000E+02   0.8938882E-01   0.9136059E-01   0.9102871E-01
  0.7550000E+02   0.8829290E-01   0.8963390E-01   0.8963390E-01
  0.7650000E+02   0.8717405E-01   0.8822627E-01   0.8822627E-01
  0.7750000E+02   0.8603530E-01   0.8680927E-01   0.8680927E-01
  0.7850000E+02   0.8433430E-01   0.8538609E-01   0.8538609E-01
  0.7950000E+02   0.8261132E-01   0.8395970E-01   0.8395970E-01
  0.8050000E+02   0.8090722E-01   0.8253281E-01   0.8253281E-01
  0.8150000E+02   0.7922414E-01   0.8133622E-01   0.8110793E-01
  0.8250000E+02   0.7756396E-01   0.8013785E-01   0.7968736E-01
  0.8350000E+02   0.7592829E-01   0.7893449E-01   0.7827318E-01
  0.8450000E+02   0.7431849E-01   0.7772813E-01   0.7686731E-01
  0.8550000E+02   0.7273572E-01   0.7652061E-01   0.7547148E-01
  0.8650000E+02   0.7118093E-01   0.7531367E-01   0.7408725E-01
  0.8750000E+02   0.6965491E-01   0.7410890E-01   0.7271602E-01
  0.8850000E+02   0.6815825E-01   0.7290779E-01   0.7135905E-01
  0.8950000E+02   0.6669142E-01   0.7171171E-01   0.7001747E-01
  0.9050000E+02   0.6525474E-01   0.7052192E-01   0.6869226E-01
  0.9150000E+02   0.6384842E-01   0.6933959E-01   0.6738431E-01
  0.9250000E+02   0.6247257E-01   0.6816579E-01   0.6609436E-01
  0.9350000E+02   0.6112717E-01   0.6700149E-01   0.6482307E-01
  0.9450000E+02   0.5981216E-01   0.6584757E-01   0.6357102E-01
  0.9550000E+02   0.5852737E-01   0.6470484E-01   0.6233867E-01
  0.9650000E+02   0.5727258E-01   0.6357403E-01   0.6112641E-01
  0.9750000E+02   0.5604751E-01   0.6245579E-01   0.5993456E-01
  0.9850000E+02   0.5485181E-01   0.6135070E-01   0.5876336E-01
  0.9950000E+02   0.5368511E-01   0.6025928E-01   0.5761300E-01
  0.1005000E+03   0.5254700E-01   0.5918199E-01   0.5648361E-01
  0.1015000E+03   0.5143703E-01   0.5811922E-01   0.5537526E-01
  0.1025000E+03   0.5035471E-01   0.5707132E-01   0.5428796E-01
  0.1035000E+03   0.4929956E-01   0.5603859E-01   0.5322171E-01
  0.1045000E+03   0.4827105E-01   0.5502127E-01   0.5217644E-01
  0.1055000E+03   0.4726865E-01   0.5401957E-01   0.5115205E-01
  0.1065000E+03   0.4629182E-01   0.5303366E-01   0.5014842E-01
  0.1075000E+03   0.4534001E-01   0.5206366E-01   0.4916539E-01
  0.1085000E+03   0.4441266E-01   0.5110966E-01   0.4820277E-01
  0.1095000E+03   0.4350920E-01   0.5017172E-01   0.4726037E-01
  0.1105000E+03   0.4262908E-01   0.4924987E-01   0.4633795E-01
  0.1115000E+03   0.4177173E-01   0.4834411E-01   0.4543527E-01
  0.1125000E+03   0.4093659E-01   0.4745442E-01   0.4455207E-01
  0.1135000E+03   0.4012312E-01   0.4658075E-01   0.4368807E-01
  0.1145000E+03   0.3933075E-01   0.4572304E-01   0.4284300E-01
  0.1155000E+03   0.3855894E-01   0.4488120E-01   0.4201654E-01
  0.1165000E+03   0.3780716E-01   0.4405511E-01   0.4120840E-01
  0.1175000E+03   0.3707487E-01   0.4324467E-01   0.4041827E-01
  0.1185000E+03   0.3636156E-01   0.4244974E-01   0.3964582E-01
  0.1195000E+03   0.3566671E-01   0.4167016E-01   0.3889075E-01
  0.1205000E+03   0.3498981E-01   0.4090577E-01   0.3815271E-01
  0.1215000E+03   0.3433039E-01   0.4015641E-01   0.3743139E-01
  0.1225000E+03   0.3368794E-01   0.3942190E-01   0.3672646E-01
  0.1235000E+03   0.3306200E-01   0.3870204E-01   0.3603758E-01
  0.1245000E+03   0.3245212E-01   0.3799665E-01   0.3536443E-01
  0.1255000E+03   0.3185783E-01   0.3730551E-01   0.3470668E-01
  0.1265000E+03   0.3127870E-01   0.3662842E-01   0.3406400E-01
  0.1275000E+03   0.3071429E-01   0.3596517E-01   0.3343607E-01
  0.1285000E+03   0.3016420E-01   0.3531554E-01   0.3282257E-01
  0.1295000E+03   0.2962802E-01   0.3467932E-01   0.3222317E-01
  0.1305000E+03   0.2910533E-01   0.3405627E-01   0.3163757E-01
  0.1315000E+03   0.2859577E-01   0.3344619E-01   0.3106545E-01
  0.1325000E+03   0.2809896E-01   0.3284883E-01   0.3050650E-01
  0.1335000E+03   0.2761452E-01   0.3226398E-01   0.2996043E-01
  0.1345000E+03   0.2714211E-01   0.3169141E-01   0.2942692E-01
  0.1355000E+03   0.2668138E-01   0.3113090E-01   0.2890569E-01
  0.1365000E+03   0.2623200E-01   0.3058220E-01   0.2839644E-01
  0.1375000E+03   0.2579364E-01   0.3004511E-01   0.2789890E-01
  0.1385000E+03   0.2536598E-01   0.2951940E-01   0.2741279E-01
  0.1395000E+03   0.2494871E-01   0.2900484E-01   0.2693782E-01
  0.1405000E+03   0.2454155E-01   0.2850120E-01   0.2647373E-01
  0.1415000E+03   0.2414420E-01   0.2800828E-01   0.2602026E-01
  0.1425000E+03   0.2375638E-01   0.2752586E-01   0.2557714E-01
  0.1435000E+03   0.2337782E-01   0.2705371E-01   0.2514413E-01
  0.1445000E+03   0.2300826E-01   0.2659163E-01   0.2472098E-01
  0.1455000E+03   0.2264744E-01   0.2613940E-01   0.2430744E-01
  0.1465000E+03   0.2229511E-01   0.2569682E-01   0.2390328E-01
  0.1475000E+03   0.2195103E-01   0.2526368E-01   0.2350827E-01
  0.1485000E+03   0.2161497E-01   0.2483978E-01   0.2312218E-01
  0.1495000E+03   0.2128671E-01   0.2442492E-01   0.2274478E-01
  0.1505000E+03   0.2096602E-01   0.2401891E-01   0.2237587E-01
  0.1515000E+03   0.2065269E-01   0.2362155E-01   0.2201523E-01
  0.1525000E+03   0.2034652E-01   0.2323265E-01   0.2166266E-01
  0.1535000E+03   0.2004731E-01   0.2285202E-01   0.2131795E-01
  0.1545000E+03   0.1975487E-01   0.2247949E-01   0.2098090E-01
  0.1555000E+03   0.1946900E-01   0.2211486E-01   0.2065134E-01
  0.1565000E+03   0.1918953E-01   0.2175798E-01   0.2032906E-01
  0.1575000E+03   0.1891628E-01   0.2140865E-01   0.2001389E-01
  0.1585000E+03   0.1864907E-01   0.2106672E-01   0.1970565E-01
  0.1595000E+03   0.1838775E-01   0.2073201E-01   0.1940416E-01
  0.1605000E+03   0.1813216E-01   0.2040437E-01   0.1910927E-01
  0.1615000E+03   0.1788213E-01   0.2008362E-01   0.1882080E-01
  0.1625000E+03   0.1763753E-01   0.1976963E-01   0.1853859E-01
  0.1635000E+03   0.1739819E-01   0.1946222E-01   0.1826248E-01
  0.1645000E+03   0.1716399E-01   0.1916125E-01   0.1799234E-01
  0.1655000E+03   0.1693478E-01   0.1886658E-01   0.1772800E-01
  0.1665000E+03   0.1671043E-01   0.1857805E-01   0.1746932E-01
  0.1675000E+03   0.1649081E-01   0.1829554E-01   0.1721616E-01
  0.1685000E+03   0.1627579E-01   0.1801889E-01   0.1696839E-01
  0.1695000E+03   0.1606527E-01   0.1774798E-01   0.1672586E-01
  0.1705000E+03   0.1585911E-01   0.1748267E-01   0.1648846E-01
  0.1715000E+03   0.1565720E-01   0.1722284E-01   0.1625605E-01
  0.1725000E+03   0.1545944E-01   0.1696836E-01   0.1602852E-01
  0.1735000E+03   0.1526571E-01   0.1671910E-01   0.1580573E-01
  0.1745000E+03   0.1507591E-01   0.1647495E-01   0.1558758E-01
  0.1755000E+03   0.1488995E-01   0.1623578E-01   0.1537395E-01
  0.1765000E+03   0.1470771E-01   0.1600148E-01   0.1516473E-01
  0.1775000E+03   0.1452912E-01   0.1577195E-01   0.1495982E-01
  0.1785000E+03   0.1435407E-01   0.1554706E-01   0.1475910E-01
  0.1795000E+03   0.1418247E-01   0.1532672E-01   0.1456247E-01
  0.1805000E+03   0.1401424E-01   0.1511082E-01   0.1436984E-01
  0.1815000E+03   0.1384930E-01   0.1489925E-01   0.1418111E-01
  0.1825000E+03   0.1368756E-01   0.1469192E-01   0.1399618E-01
  0.1835000E+03   0.1352894E-01   0.1448873E-01   0.1381497E-01
  0.1845000E+03   0.1337336E-01   0.1428958E-01   0.1363737E-01
  0.1855000E+03   0.1322076E-01   0.1409439E-01   0.1346332E-01
  0.1865000E+03   0.1307105E-01   0.1390305E-01   0.1329271E-01
  0.1875000E+03   0.1292417E-01   0.1371549E-01   0.1312548E-01
  0.1885000E+03   0.1278004E-01   0.1353162E-01   0.1296153E-01
  0.1895000E+03   0.1263861E-01   0.1335134E-01   0.1280080E-01
  0.1905000E+03   0.1249980E-01   0.1317459E-01   0.1264319E-01
  0.1915000E+03   0.1236356E-01   0.1300127E-01   0.1248865E-01
  0.1925000E+03   0.1222982E-01   0.1283132E-01   0.1233709E-01
  0.1935000E+03   0.1209852E-01   0.1266465E-01   0.1218846E-01
  0.1945000E+03   0.1196961E-01   0.1250119E-01   0.1204267E-01
  0.1955000E+03   0.1184302E-01   0.1234087E-01   0.1189966E-01
  0.1965000E+03   0.1171871E-01   0.1218361E-01   0.1175938E-01
  0.1975000E+03   0.1159661E-01   0.1202936E-01   0.1162174E-01
  0.1985000E+03   0.1147669E-01   0.1187803E-01   0.1148670E-01
  0.1995000E+03   0.1135419E-01   0.1172957E-01   0.1135419E-01
  0.2005000E+03   0.1122416E-01   0.1158391E-01   0.1122416E-01
  0.2015000E+03   0.1109654E-01   0.1144098E-01   0.1109654E-01
  0.2025000E+03   0.1097128E-01   0.1130073E-01   0.1097128E-01
  0.2035000E+03   0.1084834E-01   0.1116310E-01   0.1084834E-01
  0.2045000E+03   0.1072764E-01   0.1102802E-01   0.1072764E-01
  0.2055000E+03   0.1060916E-01   0.1089545E-01   0.1060916E-01
  0.2065000E+03   0.1049282E-01   0.1076532E-01   0.1049282E-01
  0.2075000E+03   0.1037859E-01   0.1063758E-01   0.1037859E-01
  0.2085000E+03   0.1026642E-01   0.1051218E-01   0.1026642E-01
  0.2095000E+03   0.1015627E-01   0.1038907E-01   0.1015627E-01
  0.2105000E+03   0.1004808E-01   0.1026820E-01   0.1004808E-01
  0.2115000E+03   0.9941807E-02   0.1014951E-01   0.9941807E-02
  0.2125000E+03   0.9837419E-02   0.1003296E-01   0.9837419E-02
  0.2135000E+03   0.9734869E-02   0.9918508E-02   0.9734869E-02
  0.2145000E+03   0.9634118E-02   0.9815669E-02   0.9634118E-02
  0.2155000E+03   0.9535125E-02   0.9725923E-02   0.9535125E-02
  0.2165000E+03   0.9437851E-02   0.9637621E-02   0.9437851E-02
  0.2175000E+03   0.9342260E-02   0.9550731E-02   0.9342260E-02
  0.2185000E+03   0.9248314E-02   0.9465225E-02   0.9248314E-02
  0.2195000E+03   0.9155978E-02   0.9381071E-02   0.9155978E-02
  0.2205000E+03   0.9065216E-02   0.9298241E-02   0.9065216E-02
  0.2215000E+03   0.8975995E-02   0.9216709E-02   0.8975995E-02
  0.2225000E+03   0.8888282E-02   0.9136445E-02   0.8888282E-02
  0.2235000E+03   0.8802044E-02   0.9057424E-02   0.8802044E-02
  0.2245000E+03   0.8717250E-02   0.8979621E-02   0.8717250E-02
  0.2255000E+03   0.8633868E-02   0.8903009E-02   0.8633868E-02
  0.2265000E+03   0.8551869E-02   0.8827564E-02   0.8551869E-02
  0.2275000E+03   0.8471224E-02   0.8753262E-02   0.8471224E-02
  0.2285000E+03   0.8391904E-02   0.8680079E-02   0.8391904E-02
  0.2295000E+03   0.8313881E-02   0.8607994E-02   0.8313881E-02
  0.2305000E+03   0.8237128E-02   0.8536983E-02   0.8237128E-02
  0.2315000E+03   0.8161618E-02   0.8467025E-02   0.8161618E-02
  0.2325000E+03   0.8087047E-02   0.8398099E-02   0.8087326E-02
  0.2335000E+03   0.8006198E-02   0.8330184E-02   0.8014226E-02
  0.2345000E+03   0.7926684E-02   0.8263259E-02   0.7942293E-02
  0.2355000E+03   0.7848476E-02   0.8197306E-02   0.7871504E-02
  0.2365000E+03   0.7771548E-02   0.8132304E-02   0.7801835E-02
  0.2375000E+03   0.7695874E-02   0.8068235E-02   0.7733263E-02
  0.2385000E+03   0.7621429E-02   0.8005082E-02   0.7665765E-02
  0.2395000E+03   0.7548186E-02   0.7942825E-02   0.7599320E-02
  0.2405000E+03   0.7476122E-02   0.7881447E-02   0.7533907E-02
  0.2415000E+03   0.7405213E-02   0.7820932E-02   0.7469504E-02
  0.2425000E+03   0.7335436E-02   0.7761263E-02   0.7406091E-02
  0.2435000E+03   0.7266767E-02   0.7702422E-02   0.7343649E-02
  0.2445000E+03   0.7199186E-02   0.7644396E-02   0.7282157E-02
  0.2455000E+03   0.7132669E-02   0.7587167E-02   0.7221597E-02
  0.2465000E+03   0.7067196E-02   0.7530721E-02   0.7161951E-02
  0.2475000E+03   0.7002745E-02   0.7475043E-02   0.7103200E-02
  0.2485000E+03   0.6939298E-02   0.7420119E-02   0.7045327E-02
  0.2495000E+03   0.6876833E-02   0.7365934E-02   0.6988314E-02
  0.2505000E+03   0.6815332E-02   0.7312474E-02   0.6932144E-02
  0.2515000E+03   0.6754775E-02   0.7259726E-02   0.6876802E-02
  0.2525000E+03   0.6695145E-02   0.7207677E-02   0.6822270E-02
  0.2535000E+03   0.6636423E-02   0.7156314E-02   0.6768534E-02
  0.2545000E+03   0.6578591E-02   0.7105624E-02   0.6715577E-02
  0.2555000E+03   0.6521632E-02   0.7055595E-02   0.6663385E-02
  0.2565000E+03   0.6465530E-02   0.7006215E-02   0.6611944E-02
  0.2575000E+03   0.6410267E-02   0.6957472E-02   0.6561238E-02
  0.2585000E+03   0.6355828E-02   0.6909354E-02   0.6511253E-02
  0.2595000E+03   0.6302197E-02   0.6861850E-02   0.6461977E-02
  0.2605000E+03   0.6249358E-02   0.6814949E-02   0.6413395E-02
  0.2615000E+03   0.6197296E-02   0.6768641E-02   0.6365494E-02
  0.2625000E+03   0.6145997E-02   0.6722914E-02   0.6318262E-02
  0.2635000E+03   0.6095447E-02   0.6677759E-02   0.6271686E-02
  0.2645000E+03   0.6045630E-02   0.6633165E-02   0.6225754E-02
  0.2655000E+03   0.5996533E-02   0.6589122E-02   0.6180453E-02
  0.2665000E+03   0.5948144E-02   0.6545621E-02   0.6135773E-02
  0.2675000E+03   0.5900448E-02   0.6502652E-02   0.6091701E-02
  0.2685000E+03   0.5853432E-02   0.6460206E-02   0.6048226E-02
  0.2695000E+03   0.5807085E-02   0.6418274E-02   0.6005338E-02
  0.2705000E+03   0.5761393E-02   0.6376846E-02   0.5963025E-02
  0.2715000E+03   0.5716345E-02   0.6335915E-02   0.5921277E-02
  0.2725000E+03   0.5671928E-02   0.6295472E-02   0.5880084E-02
  0.2735000E+03   0.5628132E-02   0.6255508E-02   0.5839436E-02
  0.2745000E+03   0.5584944E-02   0.6216015E-02   0.5799323E-02
  0.2755000E+03   0.5542354E-02   0.6176986E-02   0.5759735E-02
  0.2765000E+03   0.5500351E-02   0.6138412E-02   0.5720663E-02
  0.2775000E+03   0.5458924E-02   0.6100285E-02   0.5682097E-02
  0.2785000E+03   0.5418063E-02   0.6062599E-02   0.5644029E-02
  0.2795000E+03   0.5377758E-02   0.6025346E-02   0.5606449E-02
  0.2805000E+03   0.5337998E-02   0.5988518E-02   0.5569350E-02
  0.2815000E+03   0.5298775E-02   0.5952109E-02   0.5532722E-02
  0.2825000E+03   0.5260077E-02   0.5916111E-02   0.5496557E-02
  0.2835000E+03   0.5221897E-02   0.5880518E-02   0.5460848E-02
  0.2845000E+03   0.5184225E-02   0.5845324E-02   0.5425586E-02
  0.2855000E+03   0.5147051E-02   0.5810521E-02   0.5390763E-02
  0.2865000E+03   0.5110368E-02   0.5776103E-02   0.5356372E-02
  0.2875000E+03   0.5074166E-02   0.5742065E-02   0.5322405E-02
  0.2885000E+03   0.5038438E-02   0.5708400E-02   0.5288855E-02
  0.2895000E+03   0.5003174E-02   0.5675101E-02   0.5255715E-02
  0.2905000E+03   0.4968367E-02   0.5642164E-02   0.5222977E-02
  0.2915000E+03   0.4934010E-02   0.5609582E-02   0.5190636E-02
  0.2925000E+03   0.4900093E-02   0.5577350E-02   0.5158683E-02
  0.2935000E+03   0.4866610E-02   0.5545461E-02   0.5127114E-02
  0.2945000E+03   0.4833553E-02   0.5513912E-02   0.5095920E-02
  0.2955000E+03   0.4800915E-02   0.5482696E-02   0.5065096E-02
  0.2965000E+03   0.4768688E-02   0.5451808E-02   0.5034636E-02
  0.2975000E+03   0.4736867E-02   0.5421242E-02   0.5004533E-02
  0.2985000E+03   0.4705443E-02   0.5390995E-02   0.4974781E-02
  0.2995000E+03   0.4674410E-02   0.5361061E-02   0.4945376E-02
  0.3005000E+03   0.4643762E-02   0.5331436E-02   0.4916310E-02
  0.3015000E+03   0.4613492E-02   0.5302113E-02   0.4887578E-02
  0.3025000E+03   0.4583594E-02   0.5273090E-02   0.4859176E-02
  0.3035000E+03   0.4554062E-02   0.5244360E-02   0.4831097E-02
  0.3045000E+03   0.4524889E-02   0.5215921E-02   0.4803335E-02
  0.3055000E+03   0.4496070E-02   0.5187767E-02   0.4775887E-02
  0.3065000E+03   0.4467598E-02   0.5159894E-02   0.4748747E-02
  0.3075000E+03   0.4439469E-02   0.5132297E-02   0.4721910E-02
  0.3085000E+03   0.4411676E-02   0.5104974E-02   0.4695370E-02
  0.3095000E+03   0.4384214E-02   0.5077919E-02   0.4669124E-02
  0.3105000E+03   0.4357077E-02   0.5051129E-02   0.4643167E-02
