             #w        R(w)_min        R(w)_max        R(w)_avg
  0.5000000E+00   0.1896049E-05   0.6392790E-03   0.7928831E-04
  0.1500000E+01   0.4082687E-05   0.8735619E-03   0.1274869E-03
  0.2500000E+01   0.8396509E-05   0.1174438E-02   0.1995759E-03
  0.3500000E+01   0.1653528E-04   0.1554712E-02   0.3046140E-03
  0.4500000E+01   0.3125565E-04   0.2028079E-02   0.4539118E-03
  0.5500000E+01   0.5683794E-04   0.2608858E-02   0.6611853E-03
  0.6500000E+01   0.9964954E-04   0.3311663E-02   0.9425979E-03
  0.7500000E+01   0.1687811E-03   0.4151034E-02   0.1316665E-02
  0.8500000E+01   0.2767071E-03   0.5141038E-02   0.1804005E-02
  0.9500000E+01   0.4399021E-03   0.6294861E-02   0.2426931E-02
  0.1050000E+02   0.6793275E-03   0.7624403E-02   0.3208888E-02
  0.1150000E+02   0.1020699E-02   0.9139895E-02   0.4173760E-02
  0.1250000E+02   0.1494449E-02   0.1084956E-01   0.5345070E-02
  0.1350000E+02   0.2135317E-02   0.1275930E-01   0.6745123E-02
  0.1450000E+02   0.2981538E-02   0.1487250E-01   0.8394131E-02
  0.1550000E+02   0.4073626E-02   0.1718985E-01   0.1030937E-01
  0.1650000E+02   0.5452811E-02   0.1970924E-01   0.1250441E-01
  0.1750000E+02   0.7159196E-02   0.2242578E-01   0.1498846E-01
  0.1850000E+02   0.9229782E-02   0.2533184E-01   0.1776590E-01
  0.1950000E+02   0.1169646E-01   0.2841718E-01   0.2083590E-01
  0.2050000E+02   0.1458415E-01   0.3166915E-01   0.2419233E-01
  0.2150000E+02   0.1790920E-01   0.3507289E-01   0.2782375E-01
  0.2250000E+02   0.2167813E-01   0.3861167E-01   0.3171369E-01
  0.2350000E+02   0.2588687E-01   0.4226712E-01   0.3584095E-01
  0.2450000E+02   0.3052043E-01   0.4601964E-01   0.4018018E-01
  0.2550000E+02   0.3555315E-01   0.4984865E-01   0.4470244E-01
  0.2650000E+02   0.4094936E-01   0.5373301E-01   0.4937591E-01
  0.2750000E+02   0.4666442E-01   0.5765129E-01   0.5416664E-01
  0.2850000E+02   0.5264616E-01   0.6158208E-01   0.5903929E-01
  0.2950000E+02   0.5883652E-01   0.6550432E-01   0.6395787E-01
  0.3050000E+02   0.6517332E-01   0.6939752E-01   0.6888643E-01
  0.3150000E+02   0.7159208E-01   0.7378974E-01   0.7378974E-01
  0.3250000E+02   0.7701918E-01   0.7863383E-01   0.7863383E-01
  0.3350000E+02   0.8071152E-01   0.8441655E-01   0.8338656E-01
  0.3450000E+02   0.8430292E-01   0.9069710E-01   0.8801796E-01
  0.3550000E+02   0.8777863E-01   0.9681205E-01   0.9250062E-01
  0.3650000E+02   0.9112543E-01   0.1027089E+00   0.9680991E-01
  0.3750000E+02   0.9433163E-01   0.1083409E+00   0.1009242E+00
  0.3850000E+02   0.9738706E-01   0.1136673E+00   0.1048247E+00
  0.3950000E+02   0.1002831E+00   0.1186542E+00   0.1084961E+00
  0.4050000E+02   0.1030127E+00   0.1232742E+00   0.1119256E+00
  0.4150000E+02   0.1055702E+00   0.1275062E+00   0.1151037E+00
  0.4250000E+02   0.1079514E+00   0.1313357E+00   0.1180236E+00
  0.4350000E+02   0.1101534E+00   0.1347539E+00   0.1206810E+00
  0.4450000E+02   0.1121746E+00   0.1377576E+00   0.1230743E+00
  0.4550000E+02   0.1140145E+00   0.1403485E+00   0.1252039E+00
  0.4650000E+02   0.1156738E+00   0.1425326E+00   0.1270724E+00
  0.4750000E+02   0.1171540E+00   0.1443198E+00   0.1286840E+00
  0.4850000E+02   0.1184576E+00   0.1457232E+00   0.1300445E+00
  0.4950000E+02   0.1195879E+00   0.1467584E+00   0.1311613E+00
  0.5050000E+02   0.1205489E+00   0.1474433E+00   0.1320426E+00
  0.5150000E+02   0.1213451E+00   0.1477973E+00   0.1326976E+00
  0.5250000E+02   0.1219816E+00   0.1478411E+00   0.1331365E+00
  0.5350000E+02   0.1224639E+00   0.1475958E+00   0.1333698E+00
  0.5450000E+02   0.1227980E+00   0.1470834E+00   0.1334085E+00
  0.5550000E+02   0.1229898E+00   0.1463254E+00   0.1332638E+00
  0.5650000E+02   0.1230458E+00   0.1453435E+00   0.1329472E+00
  0.5750000E+02   0.1229726E+00   0.1441588E+00   0.1324700E+00
  0.5850000E+02   0.1227767E+00   0.1427918E+00   0.1318437E+00
  0.5950000E+02   0.1224647E+00   0.1412623E+00   0.1310794E+00
  0.6050000E+02   0.1220434E+00   0.1395890E+00   0.1301881E+00
  0.6150000E+02   0.1215194E+00   0.1377898E+00   0.1291803E+00
  0.6250000E+02   0.1208992E+00   0.1358817E+00   0.1280666E+00
  0.6350000E+02   0.1201893E+00   0.1338804E+00   0.1268567E+00
  0.6450000E+02   0.1193959E+00   0.1318007E+00   0.1255602E+00
  0.6550000E+02   0.1185251E+00   0.1296561E+00   0.1241862E+00
  0.6650000E+02   0.1175831E+00   0.1274592E+00   0.1227433E+00
  0.6750000E+02   0.1165755E+00   0.1252217E+00   0.1212397E+00
  0.6850000E+02   0.1155079E+00   0.1229541E+00   0.1196832E+00
  0.6950000E+02   0.1143858E+00   0.1206659E+00   0.1180809E+00
  0.7050000E+02   0.1132141E+00   0.1183658E+00   0.1164398E+00
  0.7150000E+02   0.1119980E+00   0.1160617E+00   0.1147660E+00
  0.7250000E+02   0.1107420E+00   0.1137606E+00   0.1130656E+00
  0.7350000E+02   0.1094506E+00   0.1114686E+00   0.1113440E+00
  0.7450000E+02   0.1081281E+00   0.1096064E+00   0.1096064E+00
  0.7550000E+02   0.1067785E+00   0.1078573E+00   0.1078573E+00
  0.7650000E+02   0.1046998E+00   0.1061012E+00   0.1061012E+00
  0.7750000E+02   0.1024935E+00   0.1043419E+00   0.1043419E+00
  0.7850000E+02   0.1003179E+00   0.1026039E+00   0.1025831E+00
  0.7950000E+02   0.9817577E-01   0.1011817E+00   0.1008281E+00
  0.8050000E+02   0.9606934E-01   0.9974919E-01   0.9907985E-01
  0.8150000E+02   0.9400052E-01   0.9830923E-01   0.9734107E-01
  0.8250000E+02   0.9197087E-01   0.9686435E-01   0.9561420E-01
  0.8350000E+02   0.8998162E-01   0.9541696E-01   0.9390142E-01
  0.8450000E+02   0.8803372E-01   0.9396929E-01   0.9220469E-01
  0.8550000E+02   0.8612786E-01   0.9252339E-01   0.9052573E-01
  0.8650000E+02   0.8426452E-01   0.9108116E-01   0.8886609E-01
  0.8750000E+02   0.8244395E-01   0.8964437E-01   0.8722710E-01
  0.8850000E+02   0.8066626E-01   0.8821463E-01   0.8560995E-01
  0.8950000E+02   0.7893138E-01   0.8679340E-01   0.8401563E-01
  0.9050000E+02   0.7723910E-01   0.8538204E-01   0.8244502E-01
  0.9150000E+02   0.7558911E-01   0.8398178E-01   0.8089884E-01
  0.9250000E+02   0.7398097E-01   0.8259372E-01   0.7937769E-01
  0.9350000E+02   0.7241418E-01   0.8121888E-01   0.7788207E-01
  0.9450000E+02   0.7088814E-01   0.7985816E-01   0.7641235E-01
  0.9550000E+02   0.6940220E-01   0.7851236E-01   0.7496884E-01
  0.9650000E+02   0.6795565E-01   0.7718222E-01   0.7355173E-01
  0.9750000E+02   0.6654774E-01   0.7586837E-01   0.7216115E-01
  0.9850000E+02   0.6517768E-01   0.7457137E-01   0.7079716E-01
  0.9950000E+02   0.6384465E-01   0.7329171E-01   0.6945975E-01
  0.1005000E+03   0.6254783E-01   0.7202981E-01   0.6814884E-01
  0.1015000E+03   0.6128634E-01   0.7078602E-01   0.6686434E-01
  0.1025000E+03   0.6005934E-01   0.6956064E-01   0.6560606E-01
  0.1035000E+03   0.5886594E-01   0.6835392E-01   0.6437381E-01
  0.1045000E+03   0.5770528E-01   0.6716605E-01   0.6316735E-01
  0.1055000E+03   0.5657649E-01   0.6599719E-01   0.6198641E-01
  0.1065000E+03   0.5547869E-01   0.6484742E-01   0.6083068E-01
  0.1075000E+03   0.5441104E-01   0.6371683E-01   0.5969984E-01
  0.1085000E+03   0.5337268E-01   0.6260543E-01   0.5859354E-01
  0.1095000E+03   0.5236277E-01   0.6151323E-01   0.5751143E-01
  0.1105000E+03   0.5138050E-01   0.6044019E-01   0.5645311E-01
  0.1115000E+03   0.5042504E-01   0.5938625E-01   0.5541820E-01
  0.1125000E+03   0.4949561E-01   0.5835131E-01   0.5440629E-01
  0.1135000E+03   0.4859143E-01   0.5733527E-01   0.5341698E-01
  0.1145000E+03   0.4771173E-01   0.5633800E-01   0.5244985E-01
  0.1155000E+03   0.4685577E-01   0.5535935E-01   0.5150446E-01
  0.1165000E+03   0.4602283E-01   0.5439913E-01   0.5058040E-01
  0.1175000E+03   0.4521220E-01   0.5345719E-01   0.4967724E-01
  0.1185000E+03   0.4442319E-01   0.5253331E-01   0.4879454E-01
  0.1195000E+03   0.4365513E-01   0.5162728E-01   0.4793188E-01
  0.1205000E+03   0.4290738E-01   0.5073890E-01   0.4708883E-01
  0.1215000E+03   0.4217930E-01   0.4986792E-01   0.4626496E-01
  0.1225000E+03   0.4147027E-01   0.4901411E-01   0.4545986E-01
  0.1235000E+03   0.4077970E-01   0.4817723E-01   0.4467310E-01
  0.1245000E+03   0.4010702E-01   0.4735703E-01   0.4390426E-01
  0.1255000E+03   0.3945167E-01   0.4655325E-01   0.4315294E-01
  0.1265000E+03   0.3881309E-01   0.4576563E-01   0.4241874E-01
  0.1275000E+03   0.3819078E-01   0.4499391E-01   0.4170125E-01
  0.1285000E+03   0.3758421E-01   0.4423782E-01   0.4100007E-01
  0.1295000E+03   0.3699290E-01   0.4349710E-01   0.4031483E-01
  0.1305000E+03   0.3641637E-01   0.4277148E-01   0.3964514E-01
  0.1315000E+03   0.3585417E-01   0.4206068E-01   0.3899064E-01
  0.1325000E+03   0.3530584E-01   0.4136444E-01   0.3835094E-01
  0.1335000E+03   0.3477096E-01   0.4068249E-01   0.3772569E-01
  0.1345000E+03   0.3424911E-01   0.4001456E-01   0.3711455E-01
  0.1355000E+03   0.3373990E-01   0.3936039E-01   0.3651716E-01
  0.1365000E+03   0.3324292E-01   0.3871970E-01   0.3593318E-01
  0.1375000E+03   0.3275781E-01   0.3809224E-01   0.3536229E-01
  0.1385000E+03   0.3228420E-01   0.3747773E-01   0.3480417E-01
  0.1395000E+03   0.3182174E-01   0.3687593E-01   0.3425848E-01
  0.1405000E+03   0.3137010E-01   0.3628658E-01   0.3372493E-01
  0.1415000E+03   0.3092895E-01   0.3570941E-01   0.3320322E-01
  0.1425000E+03   0.3049796E-01   0.3514419E-01   0.3269304E-01
  0.1435000E+03   0.3007685E-01   0.3459066E-01   0.3219412E-01
  0.1445000E+03   0.2966531E-01   0.3404858E-01   0.3170616E-01
  0.1455000E+03   0.2926306E-01   0.3351770E-01   0.3122890E-01
  0.1465000E+03   0.2886982E-01   0.3299780E-01   0.3076207E-01
  0.1475000E+03   0.2848532E-01   0.3248863E-01   0.3030540E-01
  0.1485000E+03   0.2810932E-01   0.3198997E-01   0.2985864E-01
  0.1495000E+03   0.2774157E-01   0.3150158E-01   0.2942155E-01
  0.1505000E+03   0.2738182E-01   0.3102326E-01   0.2899388E-01
  0.1515000E+03   0.2702984E-01   0.3055477E-01   0.2857540E-01
  0.1525000E+03   0.2668541E-01   0.3009590E-01   0.2816587E-01
  0.1535000E+03   0.2634832E-01   0.2964645E-01   0.2776508E-01
  0.1545000E+03   0.2601835E-01   0.2920621E-01   0.2737280E-01
  0.1555000E+03   0.2569531E-01   0.2877497E-01   0.2698883E-01
  0.1565000E+03   0.2537899E-01   0.2835253E-01   0.2661295E-01
  0.1575000E+03   0.2506922E-01   0.2793870E-01   0.2624497E-01
  0.1585000E+03   0.2476581E-01   0.2753329E-01   0.2588469E-01
  0.1595000E+03   0.2446858E-01   0.2713611E-01   0.2553192E-01
  0.1605000E+03   0.2417737E-01   0.2674698E-01   0.2518648E-01
  0.1615000E+03   0.2389201E-01   0.2636572E-01   0.2484817E-01
  0.1625000E+03   0.2361233E-01   0.2599214E-01   0.2451684E-01
  0.1635000E+03   0.2333820E-01   0.2562609E-01   0.2419230E-01
  0.1645000E+03   0.2306945E-01   0.2526739E-01   0.2387439E-01
  0.1655000E+03   0.2280595E-01   0.2491587E-01   0.2356295E-01
  0.1665000E+03   0.2254755E-01   0.2457137E-01   0.2325781E-01
  0.1675000E+03   0.2229412E-01   0.2423375E-01   0.2295883E-01
  0.1685000E+03   0.2204554E-01   0.2390283E-01   0.2266586E-01
  0.1695000E+03   0.2180166E-01   0.2357848E-01   0.2237875E-01
  0.1705000E+03   0.2156238E-01   0.2326054E-01   0.2209736E-01
  0.1715000E+03   0.2132758E-01   0.2294887E-01   0.2182155E-01
  0.1725000E+03   0.2109713E-01   0.2264333E-01   0.2155118E-01
  0.1735000E+03   0.2087093E-01   0.2234378E-01   0.2128613E-01
  0.1745000E+03   0.2064888E-01   0.2205008E-01   0.2102627E-01
  0.1755000E+03   0.2043086E-01   0.2176211E-01   0.2077147E-01
  0.1765000E+03   0.2021678E-01   0.2147974E-01   0.2052162E-01
  0.1775000E+03   0.2000654E-01   0.2120284E-01   0.2027660E-01
  0.1785000E+03   0.1980004E-01   0.2093128E-01   0.2003629E-01
  0.1795000E+03   0.1959720E-01   0.2066496E-01   0.1980058E-01
  0.1805000E+03   0.1939791E-01   0.2040374E-01   0.1956936E-01
  0.1815000E+03   0.1920211E-01   0.2014752E-01   0.1934253E-01
  0.1825000E+03   0.1900970E-01   0.1989619E-01   0.1911999E-01
  0.1835000E+03   0.1882061E-01   0.1964963E-01   0.1890164E-01
  0.1845000E+03   0.1863475E-01   0.1940775E-01   0.1868737E-01
  0.1855000E+03   0.1845205E-01   0.1917043E-01   0.1847710E-01
  0.1865000E+03   0.1827073E-01   0.1893757E-01   0.1827073E-01
  0.1875000E+03   0.1806817E-01   0.1870908E-01   0.1806817E-01
  0.1885000E+03   0.1786934E-01   0.1848486E-01   0.1786934E-01
  0.1895000E+03   0.1767414E-01   0.1826481E-01   0.1767414E-01
  0.1905000E+03   0.1748251E-01   0.1804885E-01   0.1748251E-01
  0.1915000E+03   0.1729435E-01   0.1783688E-01   0.1729435E-01
  0.1925000E+03   0.1710959E-01   0.1762881E-01   0.1710959E-01
  0.1935000E+03   0.1692814E-01   0.1742456E-01   0.1692814E-01
  0.1945000E+03   0.1674995E-01   0.1722405E-01   0.1674995E-01
  0.1955000E+03   0.1657492E-01   0.1702719E-01   0.1657492E-01
  0.1965000E+03   0.1640300E-01   0.1683390E-01   0.1640300E-01
  0.1975000E+03   0.1623412E-01   0.1664411E-01   0.1623412E-01
  0.1985000E+03   0.1606820E-01   0.1645774E-01   0.1606820E-01
  0.1995000E+03   0.1590518E-01   0.1627471E-01   0.1590518E-01
  0.2005000E+03   0.1574500E-01   0.1609496E-01   0.1574500E-01
  0.2015000E+03   0.1558759E-01   0.1591841E-01   0.1558759E-01
  0.2025000E+03   0.1543289E-01   0.1576534E-01   0.1543289E-01
  0.2035000E+03   0.1528085E-01   0.1562869E-01   0.1528085E-01
  0.2045000E+03   0.1513141E-01   0.1549411E-01   0.1513141E-01
  0.2055000E+03   0.1498451E-01   0.1536154E-01   0.1498451E-01
  0.2065000E+03   0.1484009E-01   0.1523096E-01   0.1484009E-01
  0.2075000E+03   0.1469811E-01   0.1510231E-01   0.1469811E-01
  0.2085000E+03   0.1455850E-01   0.1497556E-01   0.1455850E-01
  0.2095000E+03   0.1442123E-01   0.1485067E-01   0.1442123E-01
  0.2105000E+03   0.1428624E-01   0.1472760E-01   0.1428624E-01
  0.2115000E+03   0.1415347E-01   0.1460631E-01   0.1415347E-01
  0.2125000E+03   0.1402290E-01   0.1448678E-01   0.1402290E-01
  0.2135000E+03   0.1389446E-01   0.1436895E-01   0.1389446E-01
  0.2145000E+03   0.1376811E-01   0.1425281E-01   0.1376811E-01
  0.2155000E+03   0.1364381E-01   0.1413832E-01   0.1364381E-01
  0.2165000E+03   0.1352152E-01   0.1402544E-01   0.1352152E-01
  0.2175000E+03   0.1340120E-01   0.1391414E-01   0.1340120E-01
  0.2185000E+03   0.1328280E-01   0.1380440E-01   0.1328280E-01
  0.2195000E+03   0.1316628E-01   0.1369618E-01   0.1316628E-01
  0.2205000E+03   0.1305161E-01   0.1358945E-01   0.1305161E-01
  0.2215000E+03   0.1293875E-01   0.1348419E-01   0.1293875E-01
  0.2225000E+03   0.1282766E-01   0.1338036E-01   0.1282766E-01
  0.2235000E+03   0.1271831E-01   0.1327795E-01   0.1271831E-01
  0.2245000E+03   0.1260150E-01   0.1317692E-01   0.1261066E-01
  0.2255000E+03   0.1248440E-01   0.1307725E-01   0.1250467E-01
  0.2265000E+03   0.1236918E-01   0.1297891E-01   0.1240031E-01
  0.2275000E+03   0.1225581E-01   0.1288188E-01   0.1229756E-01
  0.2285000E+03   0.1214425E-01   0.1278613E-01   0.1219637E-01
  0.2295000E+03   0.1203447E-01   0.1269165E-01   0.1209671E-01
  0.2305000E+03   0.1192642E-01   0.1259840E-01   0.1199857E-01
  0.2315000E+03   0.1182008E-01   0.1250637E-01   0.1190190E-01
  0.2325000E+03   0.1171541E-01   0.1241553E-01   0.1180667E-01
  0.2335000E+03   0.1161237E-01   0.1232587E-01   0.1171287E-01
  0.2345000E+03   0.1151094E-01   0.1223735E-01   0.1162045E-01
  0.2355000E+03   0.1141108E-01   0.1214997E-01   0.1152940E-01
  0.2365000E+03   0.1131276E-01   0.1206370E-01   0.1143968E-01
  0.2375000E+03   0.1121596E-01   0.1197852E-01   0.1135128E-01
  0.2385000E+03   0.1112063E-01   0.1189441E-01   0.1126416E-01
  0.2395000E+03   0.1102676E-01   0.1181136E-01   0.1117830E-01
  0.2405000E+03   0.1093431E-01   0.1172934E-01   0.1109368E-01
  0.2415000E+03   0.1084326E-01   0.1164834E-01   0.1101027E-01
  0.2425000E+03   0.1075358E-01   0.1156834E-01   0.1092805E-01
  0.2435000E+03   0.1066524E-01   0.1148933E-01   0.1084700E-01
  0.2445000E+03   0.1057822E-01   0.1141128E-01   0.1076710E-01
  0.2455000E+03   0.1049249E-01   0.1133418E-01   0.1068831E-01
  0.2465000E+03   0.1040802E-01   0.1125801E-01   0.1061063E-01
  0.2475000E+03   0.1032480E-01   0.1118276E-01   0.1053404E-01
  0.2485000E+03   0.1024280E-01   0.1110842E-01   0.1045850E-01
  0.2495000E+03   0.1016199E-01   0.1103496E-01   0.1038400E-01
  0.2505000E+03   0.1008236E-01   0.1096238E-01   0.1031053E-01
  0.2515000E+03   0.1000388E-01   0.1089065E-01   0.1023806E-01
  0.2525000E+03   0.9926525E-02   0.1081978E-01   0.1016658E-01
  0.2535000E+03   0.9850281E-02   0.1074973E-01   0.1009606E-01
  0.2545000E+03   0.9775124E-02   0.1068050E-01   0.1002649E-01
  0.2555000E+03   0.9701034E-02   0.1061207E-01   0.9957851E-02
  0.2565000E+03   0.9627992E-02   0.1054444E-01   0.9890129E-02
  0.2575000E+03   0.9555978E-02   0.1047758E-01   0.9823304E-02
  0.2585000E+03   0.9484972E-02   0.1041149E-01   0.9757362E-02
  0.2595000E+03   0.9414957E-02   0.1034615E-01   0.9692286E-02
  0.2605000E+03   0.9345914E-02   0.1028156E-01   0.9628060E-02
  0.2615000E+03   0.9277825E-02   0.1021769E-01   0.9564670E-02
  0.2625000E+03   0.9210673E-02   0.1015455E-01   0.9502100E-02
  0.2635000E+03   0.9144441E-02   0.1009211E-01   0.9440335E-02
  0.2645000E+03   0.9079112E-02   0.1003037E-01   0.9379363E-02
  0.2655000E+03   0.9014670E-02   0.9969311E-02   0.9319167E-02
  0.2665000E+03   0.8951098E-02   0.9908929E-02   0.9259735E-02
  0.2675000E+03   0.8888382E-02   0.9849212E-02   0.9201054E-02
  0.2685000E+03   0.8826505E-02   0.9790148E-02   0.9143110E-02
  0.2695000E+03   0.8765453E-02   0.9731728E-02   0.9085890E-02
  0.2705000E+03   0.8705211E-02   0.9673943E-02   0.9029382E-02
  0.2715000E+03   0.8645764E-02   0.9616782E-02   0.8973574E-02
  0.2725000E+03   0.8587099E-02   0.9560236E-02   0.8918453E-02
  0.2735000E+03   0.8529201E-02   0.9504296E-02   0.8864007E-02
  0.2745000E+03   0.8472058E-02   0.9448952E-02   0.8810225E-02
  0.2755000E+03   0.8415656E-02   0.9394196E-02   0.8757095E-02
  0.2765000E+03   0.8359981E-02   0.9340019E-02   0.8704607E-02
  0.2775000E+03   0.8305022E-02   0.9286412E-02   0.8652750E-02
  0.2785000E+03   0.8250765E-02   0.9233367E-02   0.8601512E-02
  0.2795000E+03   0.8197199E-02   0.9180875E-02   0.8550883E-02
  0.2805000E+03   0.8144312E-02   0.9128928E-02   0.8500854E-02
  0.2815000E+03   0.8092092E-02   0.9077518E-02   0.8451413E-02
  0.2825000E+03   0.8040526E-02   0.9026638E-02   0.8402551E-02
  0.2835000E+03   0.7989606E-02   0.8976279E-02   0.8354259E-02
  0.2845000E+03   0.7939318E-02   0.8926435E-02   0.8306527E-02
  0.2855000E+03   0.7889653E-02   0.8877096E-02   0.8259345E-02
  0.2865000E+03   0.7840599E-02   0.8828257E-02   0.8212705E-02
  0.2875000E+03   0.7792147E-02   0.8779910E-02   0.8166598E-02
  0.2885000E+03   0.7744286E-02   0.8732048E-02   0.8121014E-02
  0.2895000E+03   0.7697007E-02   0.8684663E-02   0.8075946E-02
  0.2905000E+03   0.7650299E-02   0.8637750E-02   0.8031385E-02
  0.2915000E+03   0.7604153E-02   0.8591301E-02   0.7987322E-02
  0.2925000E+03   0.7558560E-02   0.8545310E-02   0.7943750E-02
  0.2935000E+03   0.7513510E-02   0.8499770E-02   0.7900660E-02
  0.2945000E+03   0.7468995E-02   0.8454675E-02   0.7858045E-02
  0.2955000E+03   0.7425006E-02   0.8410019E-02   0.7815897E-02
  0.2965000E+03   0.7381533E-02   0.8365796E-02   0.7774209E-02
  0.2975000E+03   0.7338568E-02   0.8321999E-02   0.7732973E-02
  0.2985000E+03   0.7296104E-02   0.8278622E-02   0.7692182E-02
  0.2995000E+03   0.7254132E-02   0.8235660E-02   0.7651829E-02
  0.3005000E+03   0.7212644E-02   0.8193107E-02   0.7611907E-02
  0.3015000E+03   0.7171631E-02   0.8150958E-02   0.7572410E-02
  0.3025000E+03   0.7131088E-02   0.8109206E-02   0.7533330E-02
  0.3035000E+03   0.7091005E-02   0.8067847E-02   0.7494661E-02
  0.3045000E+03   0.7051375E-02   0.8026874E-02   0.7456397E-02
  0.3055000E+03   0.7012191E-02   0.7986283E-02   0.7418531E-02
  0.3065000E+03   0.6973447E-02   0.7946069E-02   0.7381058E-02
  0.3075000E+03   0.6935134E-02   0.7906226E-02   0.7343970E-02
  0.3085000E+03   0.6897247E-02   0.7866750E-02   0.7307262E-02
  0.3095000E+03   0.6859778E-02   0.7827634E-02   0.7270929E-02
  0.3105000E+03   0.6822721E-02   0.7788876E-02   0.7234964E-02
