             #w        R(w)_min        R(w)_max        R(w)_avg
  0.5000000E+00   0.3749647E-04   0.2854820E-03   0.1244451E-03
  0.1500000E+01   0.5221526E-04   0.3535927E-03   0.1613162E-03
  0.2500000E+01   0.7178199E-04   0.4349374E-03   0.2072124E-03
  0.3500000E+01   0.9746901E-04   0.5314281E-03   0.2638350E-03
  0.4500000E+01   0.1307864E-03   0.6451319E-03   0.3330911E-03
  0.5500000E+01   0.1735029E-03   0.7782645E-03   0.4170975E-03
  0.6500000E+01   0.2276633E-03   0.9331813E-03   0.5181798E-03
  0.7500000E+01   0.2956016E-03   0.1112365E-02   0.6388684E-03
  0.8500000E+01   0.3799494E-03   0.1318409E-02   0.7818891E-03
  0.9500000E+01   0.4836375E-03   0.1554000E-02   0.9501498E-03
  0.1050000E+02   0.6098909E-03   0.1821897E-02   0.1146722E-02
  0.1150000E+02   0.7622158E-03   0.2124906E-02   0.1374819E-02
  0.1250000E+02   0.9443795E-03   0.2465853E-02   0.1637765E-02
  0.1350000E+02   0.1160381E-02   0.2847560E-02   0.1938968E-02
  0.1450000E+02   0.1414417E-02   0.3272807E-02   0.2281883E-02
  0.1550000E+02   0.1710832E-02   0.3744311E-02   0.2669972E-02
  0.1650000E+02   0.2054077E-02   0.4264684E-02   0.3106665E-02
  0.1750000E+02   0.2448642E-02   0.4836408E-02   0.3595316E-02
  0.1850000E+02   0.2899004E-02   0.5461801E-02   0.4139161E-02
  0.1950000E+02   0.3409556E-02   0.6142987E-02   0.4741269E-02
  0.2050000E+02   0.3984542E-02   0.6881864E-02   0.5404505E-02
  0.2150000E+02   0.4627990E-02   0.7680080E-02   0.6131483E-02
  0.2250000E+02   0.5343643E-02   0.8539004E-02   0.6924527E-02
  0.2350000E+02   0.6134894E-02   0.9459704E-02   0.7785633E-02
  0.2450000E+02   0.7004729E-02   0.1044293E-01   0.8716433E-02
  0.2550000E+02   0.7955664E-02   0.1148909E-01   0.9718170E-02
  0.2650000E+02   0.8989702E-02   0.1259825E-01   0.1079167E-01
  0.2750000E+02   0.1010828E-01   0.1377011E-01   0.1193731E-01
  0.2850000E+02   0.1131226E-01   0.1500400E-01   0.1315502E-01
  0.2950000E+02   0.1260185E-01   0.1629889E-01   0.1444427E-01
  0.3050000E+02   0.1397664E-01   0.1765337E-01   0.1580405E-01
  0.3150000E+02   0.1543557E-01   0.1906569E-01   0.1723289E-01
  0.3250000E+02   0.1697694E-01   0.2053372E-01   0.1872885E-01
  0.3350000E+02   0.1859838E-01   0.2205501E-01   0.2028953E-01
  0.3450000E+02   0.2029692E-01   0.2362678E-01   0.2191210E-01
  0.3550000E+02   0.2206900E-01   0.2524594E-01   0.2359333E-01
  0.3650000E+02   0.2391047E-01   0.2690910E-01   0.2532957E-01
  0.3750000E+02   0.2581667E-01   0.2861263E-01   0.2711682E-01
  0.3850000E+02   0.2778245E-01   0.3035264E-01   0.2895075E-01
  0.3950000E+02   0.2980223E-01   0.3212506E-01   0.3082672E-01
  0.4050000E+02   0.3187003E-01   0.3392559E-01   0.3273984E-01
  0.4150000E+02   0.3397957E-01   0.3574981E-01   0.3468499E-01
  0.4250000E+02   0.3612427E-01   0.3759317E-01   0.3665687E-01
  0.4350000E+02   0.3829738E-01   0.3945101E-01   0.3865001E-01
  0.4450000E+02   0.4049194E-01   0.4131862E-01   0.4065886E-01
  0.4550000E+02   0.4267779E-01   0.4319124E-01   0.4267779E-01
  0.4650000E+02   0.4470116E-01   0.4506410E-01   0.4470116E-01
  0.4750000E+02   0.4672330E-01   0.4713401E-01   0.4672330E-01
  0.4850000E+02   0.4873862E-01   0.4934404E-01   0.4873862E-01
  0.4950000E+02   0.5063706E-01   0.5154053E-01   0.5074160E-01
  0.5050000E+02   0.5246411E-01   0.5371678E-01   0.5272683E-01
  0.5150000E+02   0.5426843E-01   0.5586628E-01   0.5468903E-01
  0.5250000E+02   0.5604575E-01   0.5798275E-01   0.5662310E-01
  0.5350000E+02   0.5779197E-01   0.6006021E-01   0.5852414E-01
  0.5450000E+02   0.5950315E-01   0.6209297E-01   0.6038745E-01
  0.5550000E+02   0.6117557E-01   0.6407566E-01   0.6220858E-01
  0.5650000E+02   0.6280567E-01   0.6600327E-01   0.6398332E-01
  0.5750000E+02   0.6439016E-01   0.6787115E-01   0.6570774E-01
  0.5850000E+02   0.6592592E-01   0.6967504E-01   0.6737817E-01
  0.5950000E+02   0.6741011E-01   0.7141104E-01   0.6899125E-01
  0.6050000E+02   0.6884010E-01   0.7307568E-01   0.7054391E-01
  0.6150000E+02   0.7021351E-01   0.7466586E-01   0.7203336E-01
  0.6250000E+02   0.7152820E-01   0.7617887E-01   0.7345713E-01
  0.6350000E+02   0.7278227E-01   0.7761241E-01   0.7481303E-01
  0.6450000E+02   0.7397408E-01   0.7896456E-01   0.7609919E-01
  0.6550000E+02   0.7510221E-01   0.8023376E-01   0.7731403E-01
  0.6650000E+02   0.7616549E-01   0.8141882E-01   0.7845624E-01
  0.6750000E+02   0.7716298E-01   0.8251890E-01   0.7952482E-01
  0.6850000E+02   0.7809396E-01   0.8353350E-01   0.8051901E-01
  0.6950000E+02   0.7895794E-01   0.8446245E-01   0.8143833E-01
  0.7050000E+02   0.7975463E-01   0.8530585E-01   0.8228257E-01
  0.7150000E+02   0.8048395E-01   0.8606412E-01   0.8305172E-01
  0.7250000E+02   0.8114601E-01   0.8673794E-01   0.8374604E-01
  0.7350000E+02   0.8174111E-01   0.8732823E-01   0.8436599E-01
  0.7450000E+02   0.8226973E-01   0.8783614E-01   0.8491222E-01
  0.7550000E+02   0.8273249E-01   0.8826304E-01   0.8538560E-01
  0.7650000E+02   0.8313019E-01   0.8861050E-01   0.8578715E-01
  0.7750000E+02   0.8346376E-01   0.8888024E-01   0.8611805E-01
  0.7850000E+02   0.8373428E-01   0.8907417E-01   0.8637967E-01
  0.7950000E+02   0.8394291E-01   0.8919431E-01   0.8657347E-01
  0.8050000E+02   0.8409098E-01   0.8924281E-01   0.8670105E-01
  0.8150000E+02   0.8417987E-01   0.8922194E-01   0.8676413E-01
  0.8250000E+02   0.8421108E-01   0.8913403E-01   0.8676451E-01
  0.8350000E+02   0.8418618E-01   0.8898152E-01   0.8670409E-01
  0.8450000E+02   0.8410681E-01   0.8876687E-01   0.8658483E-01
  0.8550000E+02   0.8397468E-01   0.8849263E-01   0.8640876E-01
  0.8650000E+02   0.8379155E-01   0.8816134E-01   0.8617795E-01
  0.8750000E+02   0.8355921E-01   0.8777560E-01   0.8589453E-01
  0.8850000E+02   0.8327950E-01   0.8733799E-01   0.8556064E-01
  0.8950000E+02   0.8295429E-01   0.8685111E-01   0.8517845E-01
  0.9050000E+02   0.8258545E-01   0.8631754E-01   0.8475015E-01
  0.9150000E+02   0.8217489E-01   0.8573985E-01   0.8427793E-01
  0.9250000E+02   0.8172451E-01   0.8512058E-01   0.8376396E-01
  0.9350000E+02   0.8123620E-01   0.8446222E-01   0.8321043E-01
  0.9450000E+02   0.8071187E-01   0.8376726E-01   0.8261949E-01
  0.9550000E+02   0.8015340E-01   0.8303811E-01   0.8199328E-01
  0.9650000E+02   0.7956265E-01   0.8227714E-01   0.8133390E-01
  0.9750000E+02   0.7894148E-01   0.8148666E-01   0.8064343E-01
  0.9850000E+02   0.7829170E-01   0.8066895E-01   0.7992391E-01
  0.9950000E+02   0.7761512E-01   0.7982618E-01   0.7917734E-01
  0.1005000E+03   0.7691348E-01   0.7896049E-01   0.7840567E-01
  0.1015000E+03   0.7618852E-01   0.7807394E-01   0.7761081E-01
  0.1025000E+03   0.7544192E-01   0.7716853E-01   0.7679461E-01
  0.1035000E+03   0.7467533E-01   0.7624618E-01   0.7595888E-01
  0.1045000E+03   0.7389035E-01   0.7530874E-01   0.7510536E-01
  0.1055000E+03   0.7308855E-01   0.7435800E-01   0.7423576E-01
  0.1065000E+03   0.7227144E-01   0.7339566E-01   0.7335170E-01
  0.1075000E+03   0.7144049E-01   0.7245478E-01   0.7245478E-01
  0.1085000E+03   0.7059712E-01   0.7154651E-01   0.7154651E-01
  0.1095000E+03   0.6974269E-01   0.7062836E-01   0.7062836E-01
  0.1105000E+03   0.6887854E-01   0.6970173E-01   0.6970173E-01
  0.1115000E+03   0.6800593E-01   0.6876796E-01   0.6876796E-01
  0.1125000E+03   0.6712608E-01   0.6782835E-01   0.6782835E-01
  0.1135000E+03   0.6624018E-01   0.6688413E-01   0.6688413E-01
  0.1145000E+03   0.6534934E-01   0.6593646E-01   0.6593646E-01
  0.1155000E+03   0.6445464E-01   0.6498647E-01   0.6498647E-01
  0.1165000E+03   0.6345912E-01   0.6403522E-01   0.6403522E-01
  0.1175000E+03   0.6246173E-01   0.6308371E-01   0.6308371E-01
  0.1185000E+03   0.6146784E-01   0.6213289E-01   0.6213289E-01
  0.1195000E+03   0.6047828E-01   0.6118367E-01   0.6118367E-01
  0.1205000E+03   0.5949385E-01   0.6023690E-01   0.6023690E-01
  0.1215000E+03   0.5851529E-01   0.5929338E-01   0.5929338E-01
  0.1225000E+03   0.5754328E-01   0.5835385E-01   0.5835385E-01
  0.1235000E+03   0.5657845E-01   0.5741903E-01   0.5741903E-01
  0.1245000E+03   0.5562140E-01   0.5648957E-01   0.5648957E-01
  0.1255000E+03   0.5467267E-01   0.5556609E-01   0.5556609E-01
  0.1265000E+03   0.5373275E-01   0.5464916E-01   0.5464916E-01
  0.1275000E+03   0.5280211E-01   0.5374487E-01   0.5373932E-01
  0.1285000E+03   0.5188115E-01   0.5287691E-01   0.5283706E-01
  0.1295000E+03   0.5097027E-01   0.5201545E-01   0.5194284E-01
  0.1305000E+03   0.5006979E-01   0.5116093E-01   0.5105707E-01
  0.1315000E+03   0.4918003E-01   0.5031376E-01   0.5018014E-01
  0.1325000E+03   0.4830126E-01   0.4947433E-01   0.4931241E-01
  0.1335000E+03   0.4743373E-01   0.4864298E-01   0.4845419E-01
  0.1345000E+03   0.4657765E-01   0.4782005E-01   0.4760577E-01
  0.1355000E+03   0.4573320E-01   0.4700581E-01   0.4676741E-01
  0.1365000E+03   0.4490054E-01   0.4620055E-01   0.4593934E-01
  0.1375000E+03   0.4407982E-01   0.4540449E-01   0.4512177E-01
  0.1385000E+03   0.4327113E-01   0.4461786E-01   0.4431489E-01
  0.1395000E+03   0.4247456E-01   0.4384086E-01   0.4351885E-01
  0.1405000E+03   0.4169020E-01   0.4307365E-01   0.4273378E-01
  0.1415000E+03   0.4091807E-01   0.4231639E-01   0.4195980E-01
  0.1425000E+03   0.4015821E-01   0.4156920E-01   0.4119700E-01
  0.1435000E+03   0.3941064E-01   0.4083220E-01   0.4044546E-01
  0.1445000E+03   0.3867535E-01   0.4010548E-01   0.3970524E-01
  0.1455000E+03   0.3795232E-01   0.3938911E-01   0.3897637E-01
  0.1465000E+03   0.3724153E-01   0.3868317E-01   0.3825889E-01
  0.1475000E+03   0.3654291E-01   0.3798769E-01   0.3755279E-01
  0.1485000E+03   0.3585642E-01   0.3730271E-01   0.3685808E-01
  0.1495000E+03   0.3518200E-01   0.3662824E-01   0.3617474E-01
  0.1505000E+03   0.3451955E-01   0.3596428E-01   0.3550274E-01
  0.1515000E+03   0.3386900E-01   0.3531084E-01   0.3484204E-01
  0.1525000E+03   0.3323024E-01   0.3466789E-01   0.3419258E-01
  0.1535000E+03   0.3260318E-01   0.3403541E-01   0.3355432E-01
  0.1545000E+03   0.3198769E-01   0.3341335E-01   0.3292717E-01
  0.1555000E+03   0.3138367E-01   0.3280167E-01   0.3231107E-01
  0.1565000E+03   0.3079099E-01   0.3220031E-01   0.3170592E-01
  0.1575000E+03   0.3020952E-01   0.3160922E-01   0.3111163E-01
  0.1585000E+03   0.2963912E-01   0.3102831E-01   0.3052810E-01
  0.1595000E+03   0.2907966E-01   0.3045751E-01   0.2995523E-01
  0.1605000E+03   0.2853099E-01   0.2989675E-01   0.2939291E-01
  0.1615000E+03   0.2799298E-01   0.2934592E-01   0.2884103E-01
  0.1625000E+03   0.2746546E-01   0.2880493E-01   0.2829945E-01
  0.1635000E+03   0.2694830E-01   0.2827369E-01   0.2776806E-01
  0.1645000E+03   0.2644133E-01   0.2775209E-01   0.2724674E-01
  0.1655000E+03   0.2594441E-01   0.2724003E-01   0.2673535E-01
  0.1665000E+03   0.2545737E-01   0.2673739E-01   0.2623375E-01
  0.1675000E+03   0.2498007E-01   0.2624406E-01   0.2574182E-01
  0.1685000E+03   0.2451234E-01   0.2575992E-01   0.2525942E-01
  0.1695000E+03   0.2405402E-01   0.2528485E-01   0.2478640E-01
  0.1705000E+03   0.2360496E-01   0.2481874E-01   0.2432263E-01
  0.1715000E+03   0.2316500E-01   0.2436146E-01   0.2386797E-01
  0.1725000E+03   0.2273397E-01   0.2391288E-01   0.2342227E-01
  0.1735000E+03   0.2231173E-01   0.2347288E-01   0.2298539E-01
  0.1745000E+03   0.2189811E-01   0.2304132E-01   0.2255719E-01
  0.1755000E+03   0.2149296E-01   0.2261810E-01   0.2213751E-01
  0.1765000E+03   0.2109612E-01   0.2220306E-01   0.2172623E-01
  0.1775000E+03   0.2070744E-01   0.2179609E-01   0.2132320E-01
  0.1785000E+03   0.2032676E-01   0.2139706E-01   0.2092827E-01
  0.1795000E+03   0.1995393E-01   0.2100583E-01   0.2054129E-01
  0.1805000E+03   0.1958881E-01   0.2062228E-01   0.2016214E-01
  0.1815000E+03   0.1923123E-01   0.2024628E-01   0.1979067E-01
  0.1825000E+03   0.1888106E-01   0.1987769E-01   0.1942673E-01
  0.1835000E+03   0.1853815E-01   0.1951640E-01   0.1907019E-01
  0.1845000E+03   0.1820235E-01   0.1916227E-01   0.1872091E-01
  0.1855000E+03   0.1787352E-01   0.1881517E-01   0.1837876E-01
  0.1865000E+03   0.1755152E-01   0.1847499E-01   0.1804359E-01
  0.1875000E+03   0.1723621E-01   0.1814159E-01   0.1771528E-01
  0.1885000E+03   0.1692746E-01   0.1781485E-01   0.1739369E-01
  0.1895000E+03   0.1662513E-01   0.1749465E-01   0.1707870E-01
  0.1905000E+03   0.1632909E-01   0.1718086E-01   0.1677016E-01
  0.1915000E+03   0.1603920E-01   0.1687338E-01   0.1646796E-01
  0.1925000E+03   0.1575534E-01   0.1657207E-01   0.1617196E-01
  0.1935000E+03   0.1547739E-01   0.1627681E-01   0.1588205E-01
  0.1945000E+03   0.1520521E-01   0.1598750E-01   0.1559810E-01
  0.1955000E+03   0.1493869E-01   0.1570402E-01   0.1532000E-01
  0.1965000E+03   0.1467771E-01   0.1542625E-01   0.1504761E-01
  0.1975000E+03   0.1442214E-01   0.1515408E-01   0.1478083E-01
  0.1985000E+03   0.1417188E-01   0.1488741E-01   0.1451953E-01
  0.1995000E+03   0.1392680E-01   0.1462611E-01   0.1426361E-01
  0.2005000E+03   0.1368680E-01   0.1437009E-01   0.1401296E-01
  0.2015000E+03   0.1345177E-01   0.1411924E-01   0.1376746E-01
  0.2025000E+03   0.1322160E-01   0.1387346E-01   0.1352701E-01
  0.2035000E+03   0.1299618E-01   0.1363264E-01   0.1329149E-01
  0.2045000E+03   0.1277541E-01   0.1339668E-01   0.1306082E-01
  0.2055000E+03   0.1255920E-01   0.1316549E-01   0.1283488E-01
  0.2065000E+03   0.1234743E-01   0.1293896E-01   0.1261357E-01
  0.2075000E+03   0.1214002E-01   0.1271700E-01   0.1239680E-01
  0.2085000E+03   0.1193686E-01   0.1249951E-01   0.1218446E-01
  0.2095000E+03   0.1173787E-01   0.1228641E-01   0.1197647E-01
  0.2105000E+03   0.1154296E-01   0.1207760E-01   0.1177274E-01
  0.2115000E+03   0.1135202E-01   0.1187300E-01   0.1157316E-01
  0.2125000E+03   0.1116499E-01   0.1167251E-01   0.1137765E-01
  0.2135000E+03   0.1098176E-01   0.1147605E-01   0.1118612E-01
  0.2145000E+03   0.1080226E-01   0.1128353E-01   0.1099850E-01
  0.2155000E+03   0.1062640E-01   0.1109488E-01   0.1081468E-01
  0.2165000E+03   0.1045411E-01   0.1091001E-01   0.1063460E-01
  0.2175000E+03   0.1028530E-01   0.1072883E-01   0.1045816E-01
  0.2185000E+03   0.1011990E-01   0.1055129E-01   0.1028530E-01
  0.2195000E+03   0.9957831E-02   0.1037728E-01   0.1011593E-01
  0.2205000E+03   0.9799021E-02   0.1020675E-01   0.9949971E-02
  0.2215000E+03   0.9643398E-02   0.1003962E-01   0.9787358E-02
  0.2225000E+03   0.9490892E-02   0.9875813E-02   0.9628016E-02
  0.2235000E+03   0.9341432E-02   0.9715261E-02   0.9471872E-02
  0.2245000E+03   0.9194953E-02   0.9557894E-02   0.9318857E-02
  0.2255000E+03   0.9051387E-02   0.9403644E-02   0.9168903E-02
  0.2265000E+03   0.8910672E-02   0.9252446E-02   0.9021943E-02
  0.2275000E+03   0.8772743E-02   0.9104234E-02   0.8877911E-02
  0.2285000E+03   0.8637539E-02   0.8958944E-02   0.8736745E-02
  0.2295000E+03   0.8505000E-02   0.8816515E-02   0.8598380E-02
  0.2305000E+03   0.8375067E-02   0.8676884E-02   0.8462757E-02
  0.2315000E+03   0.8247683E-02   0.8539992E-02   0.8329815E-02
  0.2325000E+03   0.8122791E-02   0.8405781E-02   0.8199497E-02
  0.2335000E+03   0.8000337E-02   0.8274192E-02   0.8071743E-02
  0.2345000E+03   0.7880268E-02   0.8145171E-02   0.7946500E-02
  0.2355000E+03   0.7762530E-02   0.8018662E-02   0.7823712E-02
  0.2365000E+03   0.7647072E-02   0.7894612E-02   0.7703325E-02
  0.2375000E+03   0.7533845E-02   0.7772967E-02   0.7585288E-02
  0.2385000E+03   0.7422799E-02   0.7653676E-02   0.7469549E-02
  0.2395000E+03   0.7313888E-02   0.7536690E-02   0.7356058E-02
  0.2405000E+03   0.7207063E-02   0.7421959E-02   0.7244766E-02
  0.2415000E+03   0.7102280E-02   0.7309434E-02   0.7135626E-02
  0.2425000E+03   0.6999494E-02   0.7199069E-02   0.7028592E-02
  0.2435000E+03   0.6898662E-02   0.7090817E-02   0.6923616E-02
  0.2445000E+03   0.6799741E-02   0.6984634E-02   0.6820655E-02
  0.2455000E+03   0.6702689E-02   0.6880475E-02   0.6719665E-02
  0.2465000E+03   0.6607467E-02   0.6778297E-02   0.6620604E-02
  0.2475000E+03   0.6514033E-02   0.6678058E-02   0.6523430E-02
  0.2485000E+03   0.6422351E-02   0.6579717E-02   0.6428101E-02
  0.2495000E+03   0.6332381E-02   0.6483234E-02   0.6334580E-02
  0.2505000E+03   0.6242825E-02   0.6388569E-02   0.6242825E-02
  0.2515000E+03   0.6152801E-02   0.6295683E-02   0.6152801E-02
  0.2525000E+03   0.6064468E-02   0.6204539E-02   0.6064468E-02
  0.2535000E+03   0.5977792E-02   0.6115100E-02   0.5977792E-02
  0.2545000E+03   0.5892737E-02   0.6027330E-02   0.5892737E-02
  0.2555000E+03   0.5809268E-02   0.5941193E-02   0.5809268E-02
  0.2565000E+03   0.5727350E-02   0.5856656E-02   0.5727350E-02
  0.2575000E+03   0.5646952E-02   0.5773684E-02   0.5646952E-02
  0.2585000E+03   0.5568041E-02   0.5692245E-02   0.5568041E-02
  0.2595000E+03   0.5490585E-02   0.5612306E-02   0.5490585E-02
  0.2605000E+03   0.5414554E-02   0.5533836E-02   0.5414554E-02
  0.2615000E+03   0.5339916E-02   0.5456804E-02   0.5339916E-02
  0.2625000E+03   0.5266643E-02   0.5381180E-02   0.5266643E-02
  0.2635000E+03   0.5194706E-02   0.5306935E-02   0.5194706E-02
  0.2645000E+03   0.5124077E-02   0.5234039E-02   0.5124077E-02
  0.2655000E+03   0.5054728E-02   0.5162465E-02   0.5054728E-02
  0.2665000E+03   0.4986633E-02   0.5092185E-02   0.4986633E-02
  0.2675000E+03   0.4919764E-02   0.5023173E-02   0.4919764E-02
  0.2685000E+03   0.4854097E-02   0.4955401E-02   0.4854097E-02
  0.2695000E+03   0.4789606E-02   0.4888845E-02   0.4789606E-02
  0.2705000E+03   0.4726268E-02   0.4823479E-02   0.4726268E-02
  0.2715000E+03   0.4664056E-02   0.4759278E-02   0.4664056E-02
  0.2725000E+03   0.4602950E-02   0.4696220E-02   0.4602950E-02
  0.2735000E+03   0.4542924E-02   0.4634279E-02   0.4542924E-02
  0.2745000E+03   0.4483958E-02   0.4573433E-02   0.4483958E-02
  0.2755000E+03   0.4426030E-02   0.4513661E-02   0.4426030E-02
  0.2765000E+03   0.4369117E-02   0.4454939E-02   0.4369117E-02
  0.2775000E+03   0.4313199E-02   0.4397246E-02   0.4313199E-02
  0.2785000E+03   0.4258256E-02   0.4340562E-02   0.4258256E-02
  0.2795000E+03   0.4204267E-02   0.4284865E-02   0.4204267E-02
  0.2805000E+03   0.4151214E-02   0.4230137E-02   0.4151214E-02
  0.2815000E+03   0.4099077E-02   0.4176356E-02   0.4099077E-02
  0.2825000E+03   0.4047837E-02   0.4123505E-02   0.4047837E-02
  0.2835000E+03   0.3997477E-02   0.4072525E-02   0.3997477E-02
  0.2845000E+03   0.3947978E-02   0.4024320E-02   0.3947978E-02
  0.2855000E+03   0.3899323E-02   0.3976917E-02   0.3899323E-02
  0.2865000E+03   0.3851495E-02   0.3930301E-02   0.3851495E-02
  0.2875000E+03   0.3804477E-02   0.3884455E-02   0.3804477E-02
  0.2885000E+03   0.3758254E-02   0.3839364E-02   0.3758254E-02
  0.2895000E+03   0.3712808E-02   0.3795015E-02   0.3712808E-02
  0.2905000E+03   0.3668126E-02   0.3751390E-02   0.3668126E-02
  0.2915000E+03   0.3624191E-02   0.3708478E-02   0.3624191E-02
  0.2925000E+03   0.3580988E-02   0.3666262E-02   0.3580988E-02
  0.2935000E+03   0.3538504E-02   0.3624731E-02   0.3538504E-02
  0.2945000E+03   0.3496723E-02   0.3583869E-02   0.3496723E-02
  0.2955000E+03   0.3455632E-02   0.3543665E-02   0.3455632E-02
  0.2965000E+03   0.3415218E-02   0.3504106E-02   0.3415218E-02
  0.2975000E+03   0.3375467E-02   0.3465178E-02   0.3375467E-02
  0.2985000E+03   0.3336366E-02   0.3426870E-02   0.3336366E-02
  0.2995000E+03   0.3297902E-02   0.3389169E-02   0.3297902E-02
  0.3005000E+03   0.3260063E-02   0.3352064E-02   0.3260063E-02
  0.3015000E+03   0.3222837E-02   0.3315544E-02   0.3222837E-02
  0.3025000E+03   0.3186211E-02   0.3279597E-02   0.3186211E-02
  0.3035000E+03   0.3150175E-02   0.3244212E-02   0.3150175E-02
  0.3045000E+03   0.3114717E-02   0.3209379E-02   0.3114717E-02
  0.3055000E+03   0.3079825E-02   0.3175086E-02   0.3079825E-02
  0.3065000E+03   0.3045489E-02   0.3141325E-02   0.3045489E-02
  0.3075000E+03   0.3011698E-02   0.3108084E-02   0.3011698E-02
  0.3085000E+03   0.2978442E-02   0.3075353E-02   0.2978442E-02
  0.3095000E+03   0.2945710E-02   0.3043124E-02   0.2945710E-02
  0.3105000E+03   0.2913493E-02   0.3011387E-02   0.2913493E-02
