             #w        R(w)_min        R(w)_max        R(w)_avg
  0.5000000E+00   0.2692257E-04   0.3538401E-03   0.1246383E-03
  0.1500000E+01   0.3881952E-04   0.4396911E-03   0.1641534E-03
  0.2500000E+01   0.5515169E-04   0.5423904E-03   0.2140297E-03
  0.3500000E+01   0.7725218E-04   0.6643606E-03   0.2763638E-03
  0.4500000E+01   0.1067482E-03   0.8082088E-03   0.3535271E-03
  0.5500000E+01   0.1455961E-03   0.9767141E-03   0.4481712E-03
  0.6500000E+01   0.1961140E-03   0.1172813E-02   0.5632285E-03
  0.7500000E+01   0.2610093E-03   0.1399577E-02   0.7019060E-03
  0.8500000E+01   0.3434000E-03   0.1660192E-02   0.8676730E-03
  0.9500000E+01   0.4468277E-03   0.1957928E-02   0.1064241E-02
  0.1050000E+02   0.5752613E-03   0.2296108E-02   0.1295538E-02
  0.1150000E+02   0.7330886E-03   0.2678075E-02   0.1565674E-02
  0.1250000E+02   0.9250962E-03   0.3107155E-02   0.1878900E-02
  0.1350000E+02   0.1156436E-02   0.3586618E-02   0.2239564E-02
  0.1450000E+02   0.1432581E-02   0.4119639E-02   0.2652058E-02
  0.1550000E+02   0.1759262E-02   0.4709256E-02   0.3120762E-02
  0.1650000E+02   0.2142402E-02   0.5358331E-02   0.3649983E-02
  0.1750000E+02   0.2588027E-02   0.6069512E-02   0.4243898E-02
  0.1850000E+02   0.3102183E-02   0.6845192E-02   0.4906486E-02
  0.1950000E+02   0.3690832E-02   0.7687475E-02   0.5641469E-02
  0.2050000E+02   0.4359752E-02   0.8598143E-02   0.6452249E-02
  0.2150000E+02   0.5114431E-02   0.9578624E-02   0.7341855E-02
  0.2250000E+02   0.5959964E-02   0.1062997E-01   0.8312884E-02
  0.2350000E+02   0.6900948E-02   0.1175284E-01   0.9367454E-02
  0.2450000E+02   0.7941392E-02   0.1294745E-01   0.1050716E-01
  0.2550000E+02   0.9084625E-02   0.1421362E-01   0.1173305E-01
  0.2650000E+02   0.1033322E-01   0.1555071E-01   0.1304558E-01
  0.2750000E+02   0.1168894E-01   0.1695765E-01   0.1444459E-01
  0.2850000E+02   0.1315265E-01   0.1843291E-01   0.1592933E-01
  0.2950000E+02   0.1472434E-01   0.1997456E-01   0.1749838E-01
  0.3050000E+02   0.1640304E-01   0.2158023E-01   0.1914976E-01
  0.3150000E+02   0.1818684E-01   0.2324714E-01   0.2088083E-01
  0.3250000E+02   0.2007293E-01   0.2497213E-01   0.2268841E-01
  0.3350000E+02   0.2205755E-01   0.2675168E-01   0.2456870E-01
  0.3450000E+02   0.2413609E-01   0.2858192E-01   0.2651743E-01
  0.3550000E+02   0.2630311E-01   0.3045869E-01   0.2852981E-01
  0.3650000E+02   0.2855241E-01   0.3237754E-01   0.3060059E-01
  0.3750000E+02   0.3087707E-01   0.3433378E-01   0.3272413E-01
  0.3850000E+02   0.3326957E-01   0.3632251E-01   0.3489445E-01
  0.3950000E+02   0.3572184E-01   0.3833866E-01   0.3710526E-01
  0.4050000E+02   0.3822537E-01   0.4037701E-01   0.3935002E-01
  0.4150000E+02   0.4077128E-01   0.4243226E-01   0.4162200E-01
  0.4250000E+02   0.4335041E-01   0.4449903E-01   0.4391435E-01
  0.4350000E+02   0.4595344E-01   0.4657191E-01   0.4622012E-01
  0.4450000E+02   0.4853234E-01   0.4864550E-01   0.4853234E-01
  0.4550000E+02   0.5071443E-01   0.5119352E-01   0.5084407E-01
  0.4650000E+02   0.5277342E-01   0.5381179E-01   0.5314843E-01
  0.4750000E+02   0.5481726E-01   0.5641657E-01   0.5543867E-01
  0.4850000E+02   0.5684087E-01   0.5899890E-01   0.5770818E-01
  0.4950000E+02   0.5883935E-01   0.6155008E-01   0.5995057E-01
  0.5050000E+02   0.6080794E-01   0.6406180E-01   0.6215967E-01
  0.5150000E+02   0.6274210E-01   0.6652611E-01   0.6432959E-01
  0.5250000E+02   0.6463748E-01   0.6893553E-01   0.6645473E-01
  0.5350000E+02   0.6648998E-01   0.7128303E-01   0.6852979E-01
  0.5450000E+02   0.6829573E-01   0.7356212E-01   0.7054983E-01
  0.5550000E+02   0.7005113E-01   0.7576682E-01   0.7251025E-01
  0.5650000E+02   0.7175283E-01   0.7789170E-01   0.7440682E-01
  0.5750000E+02   0.7339775E-01   0.7993189E-01   0.7623570E-01
  0.5850000E+02   0.7498309E-01   0.8188309E-01   0.7799340E-01
  0.5950000E+02   0.7650632E-01   0.8374154E-01   0.7967683E-01
  0.6050000E+02   0.7796521E-01   0.8550405E-01   0.8128328E-01
  0.6150000E+02   0.7935777E-01   0.8716796E-01   0.8281041E-01
  0.6250000E+02   0.8068231E-01   0.8873116E-01   0.8425626E-01
  0.6350000E+02   0.8193740E-01   0.9019204E-01   0.8561923E-01
  0.6450000E+02   0.8312188E-01   0.9154946E-01   0.8689807E-01
  0.6550000E+02   0.8423484E-01   0.9280280E-01   0.8809187E-01
  0.6650000E+02   0.8527561E-01   0.9395183E-01   0.8920005E-01
  0.6750000E+02   0.8624378E-01   0.9499677E-01   0.9022235E-01
  0.6850000E+02   0.8713914E-01   0.9593822E-01   0.9115879E-01
  0.6950000E+02   0.8796173E-01   0.9677714E-01   0.9200968E-01
  0.7050000E+02   0.8871178E-01   0.9751484E-01   0.9277560E-01
  0.7150000E+02   0.8938972E-01   0.9815291E-01   0.9345736E-01
  0.7250000E+02   0.8999615E-01   0.9869323E-01   0.9405601E-01
  0.7350000E+02   0.9053188E-01   0.9913794E-01   0.9457281E-01
  0.7450000E+02   0.9099784E-01   0.9948937E-01   0.9500920E-01
  0.7550000E+02   0.9139512E-01   0.9975008E-01   0.9536680E-01
  0.7650000E+02   0.9172497E-01   0.9992278E-01   0.9564740E-01
  0.7750000E+02   0.9198872E-01   0.1000103E+00   0.9585291E-01
  0.7850000E+02   0.9218784E-01   0.1000157E+00   0.9598538E-01
  0.7950000E+02   0.9232390E-01   0.9994196E-01   0.9604696E-01
  0.8050000E+02   0.9239856E-01   0.9979229E-01   0.9603988E-01
  0.8150000E+02   0.9241355E-01   0.9956989E-01   0.9596648E-01
  0.8250000E+02   0.9237066E-01   0.9927801E-01   0.9582913E-01
  0.8350000E+02   0.9227176E-01   0.9891994E-01   0.9563027E-01
  0.8450000E+02   0.9211875E-01   0.9849895E-01   0.9537238E-01
  0.8550000E+02   0.9191358E-01   0.9801832E-01   0.9505795E-01
  0.8650000E+02   0.9165822E-01   0.9748131E-01   0.9468950E-01
  0.8750000E+02   0.9135467E-01   0.9689115E-01   0.9426955E-01
  0.8850000E+02   0.9100494E-01   0.9625102E-01   0.9380062E-01
  0.8950000E+02   0.9061105E-01   0.9556404E-01   0.9328522E-01
  0.9050000E+02   0.9017502E-01   0.9483330E-01   0.9272583E-01
  0.9150000E+02   0.8969886E-01   0.9406180E-01   0.9212490E-01
  0.9250000E+02   0.8918456E-01   0.9325247E-01   0.9148488E-01
  0.9350000E+02   0.8863412E-01   0.9240815E-01   0.9080813E-01
  0.9450000E+02   0.8804949E-01   0.9153162E-01   0.9009699E-01
  0.9550000E+02   0.8743261E-01   0.9062556E-01   0.8935377E-01
  0.9650000E+02   0.8678538E-01   0.8969257E-01   0.8858069E-01
  0.9750000E+02   0.8610967E-01   0.8873513E-01   0.8777994E-01
  0.9850000E+02   0.8540731E-01   0.8775566E-01   0.8695363E-01
  0.9950000E+02   0.8468009E-01   0.8675646E-01   0.8610383E-01
  0.1005000E+03   0.8392977E-01   0.8573976E-01   0.8523253E-01
  0.1015000E+03   0.8315805E-01   0.8470766E-01   0.8434166E-01
  0.1025000E+03   0.8236658E-01   0.8366219E-01   0.8343308E-01
  0.1035000E+03   0.8155698E-01   0.8260528E-01   0.8250859E-01
  0.1045000E+03   0.8073080E-01   0.8156990E-01   0.8156990E-01
  0.1055000E+03   0.7988957E-01   0.8061869E-01   0.8061869E-01
  0.1065000E+03   0.7903473E-01   0.7965653E-01   0.7965653E-01
  0.1075000E+03   0.7816769E-01   0.7868495E-01   0.7868495E-01
  0.1085000E+03   0.7721015E-01   0.7770541E-01   0.7770541E-01
  0.1095000E+03   0.7611997E-01   0.7671928E-01   0.7671928E-01
  0.1105000E+03   0.7502932E-01   0.7572790E-01   0.7572790E-01
  0.1115000E+03   0.7393944E-01   0.7473251E-01   0.7473251E-01
  0.1125000E+03   0.7285148E-01   0.7373432E-01   0.7373432E-01
  0.1135000E+03   0.7176651E-01   0.7278174E-01   0.7273444E-01
  0.1145000E+03   0.7068555E-01   0.7186444E-01   0.7173396E-01
  0.1155000E+03   0.6960954E-01   0.7094436E-01   0.7073387E-01
  0.1165000E+03   0.6853934E-01   0.7002247E-01   0.6973514E-01
  0.1175000E+03   0.6747577E-01   0.6909965E-01   0.6873866E-01
  0.1185000E+03   0.6641957E-01   0.6817678E-01   0.6774527E-01
  0.1195000E+03   0.6537144E-01   0.6725467E-01   0.6675577E-01
  0.1205000E+03   0.6433200E-01   0.6633409E-01   0.6577089E-01
  0.1215000E+03   0.6330183E-01   0.6541576E-01   0.6479133E-01
  0.1225000E+03   0.6228148E-01   0.6450037E-01   0.6381772E-01
  0.1235000E+03   0.6127141E-01   0.6358857E-01   0.6285067E-01
  0.1245000E+03   0.6027206E-01   0.6268097E-01   0.6189073E-01
  0.1255000E+03   0.5928384E-01   0.6177813E-01   0.6093841E-01
  0.1265000E+03   0.5830708E-01   0.6088058E-01   0.5999419E-01
  0.1275000E+03   0.5734210E-01   0.5998883E-01   0.5905850E-01
  0.1285000E+03   0.5638917E-01   0.5910333E-01   0.5813173E-01
  0.1295000E+03   0.5544855E-01   0.5822451E-01   0.5721426E-01
  0.1305000E+03   0.5452043E-01   0.5735278E-01   0.5630640E-01
  0.1315000E+03   0.5360500E-01   0.5648849E-01   0.5540846E-01
  0.1325000E+03   0.5270241E-01   0.5563199E-01   0.5452071E-01
  0.1335000E+03   0.5181277E-01   0.5478360E-01   0.5364338E-01
  0.1345000E+03   0.5093619E-01   0.5394358E-01   0.5277669E-01
  0.1355000E+03   0.5007273E-01   0.5311221E-01   0.5192082E-01
  0.1365000E+03   0.4922246E-01   0.5228972E-01   0.5107594E-01
  0.1375000E+03   0.4838540E-01   0.5147632E-01   0.5024218E-01
  0.1385000E+03   0.4756156E-01   0.5067219E-01   0.4941966E-01
  0.1395000E+03   0.4675095E-01   0.4987752E-01   0.4860847E-01
  0.1405000E+03   0.4595352E-01   0.4909244E-01   0.4780870E-01
  0.1415000E+03   0.4516925E-01   0.4831708E-01   0.4702040E-01
  0.1425000E+03   0.4439809E-01   0.4755157E-01   0.4624362E-01
  0.1435000E+03   0.4363997E-01   0.4679599E-01   0.4547838E-01
  0.1445000E+03   0.4289481E-01   0.4605042E-01   0.4472469E-01
  0.1455000E+03   0.4216253E-01   0.4531492E-01   0.4398255E-01
  0.1465000E+03   0.4144303E-01   0.4458955E-01   0.4325195E-01
  0.1475000E+03   0.4073619E-01   0.4387433E-01   0.4253285E-01
  0.1485000E+03   0.4004191E-01   0.4316930E-01   0.4182523E-01
  0.1495000E+03   0.3936006E-01   0.4247447E-01   0.4112902E-01
  0.1505000E+03   0.3869051E-01   0.4178983E-01   0.4044417E-01
  0.1515000E+03   0.3803312E-01   0.4111536E-01   0.3977061E-01
  0.1525000E+03   0.3738776E-01   0.4045107E-01   0.3910826E-01
  0.1535000E+03   0.3675428E-01   0.3979690E-01   0.3845705E-01
  0.1545000E+03   0.3613252E-01   0.3915283E-01   0.3781687E-01
  0.1555000E+03   0.3552233E-01   0.3851880E-01   0.3718764E-01
  0.1565000E+03   0.3492355E-01   0.3789477E-01   0.3656924E-01
  0.1575000E+03   0.3433603E-01   0.3728067E-01   0.3596158E-01
  0.1585000E+03   0.3375960E-01   0.3667643E-01   0.3536453E-01
  0.1595000E+03   0.3319409E-01   0.3608199E-01   0.3477798E-01
  0.1605000E+03   0.3263933E-01   0.3549726E-01   0.3420181E-01
  0.1615000E+03   0.3209517E-01   0.3492216E-01   0.3363590E-01
  0.1625000E+03   0.3156143E-01   0.3435661E-01   0.3308010E-01
  0.1635000E+03   0.3103794E-01   0.3380050E-01   0.3253430E-01
  0.1645000E+03   0.3052453E-01   0.3325375E-01   0.3199836E-01
  0.1655000E+03   0.3002104E-01   0.3271626E-01   0.3147215E-01
  0.1665000E+03   0.2952728E-01   0.3218791E-01   0.3095553E-01
  0.1675000E+03   0.2904311E-01   0.3166862E-01   0.3044836E-01
  0.1685000E+03   0.2856833E-01   0.3115826E-01   0.2995050E-01
  0.1695000E+03   0.2810280E-01   0.3065673E-01   0.2946181E-01
  0.1705000E+03   0.2764633E-01   0.3016392E-01   0.2898216E-01
  0.1715000E+03   0.2719877E-01   0.2967972E-01   0.2851139E-01
  0.1725000E+03   0.2675996E-01   0.2920400E-01   0.2804938E-01
  0.1735000E+03   0.2632972E-01   0.2873666E-01   0.2759597E-01
  0.1745000E+03   0.2590790E-01   0.2827757E-01   0.2715104E-01
  0.1755000E+03   0.2549434E-01   0.2782663E-01   0.2671443E-01
  0.1765000E+03   0.2508887E-01   0.2738370E-01   0.2628600E-01
  0.1775000E+03   0.2469136E-01   0.2694868E-01   0.2586562E-01
  0.1785000E+03   0.2430163E-01   0.2652144E-01   0.2545315E-01
  0.1795000E+03   0.2391954E-01   0.2610186E-01   0.2504846E-01
  0.1805000E+03   0.2354494E-01   0.2568982E-01   0.2465139E-01
  0.1815000E+03   0.2317767E-01   0.2528522E-01   0.2426183E-01
  0.1825000E+03   0.2281760E-01   0.2488792E-01   0.2387962E-01
  0.1835000E+03   0.2246458E-01   0.2449780E-01   0.2350465E-01
  0.1845000E+03   0.2211847E-01   0.2411476E-01   0.2313677E-01
  0.1855000E+03   0.2177913E-01   0.2373868E-01   0.2277586E-01
  0.1865000E+03   0.2144641E-01   0.2336943E-01   0.2242179E-01
  0.1875000E+03   0.2112020E-01   0.2300690E-01   0.2207443E-01
  0.1885000E+03   0.2080034E-01   0.2265098E-01   0.2173366E-01
  0.1895000E+03   0.2048672E-01   0.2230155E-01   0.2139934E-01
  0.1905000E+03   0.2017921E-01   0.2195851E-01   0.2107136E-01
  0.1915000E+03   0.1987767E-01   0.2162174E-01   0.2074960E-01
  0.1925000E+03   0.1958199E-01   0.2129112E-01   0.2043393E-01
  0.1935000E+03   0.1929204E-01   0.2096655E-01   0.2012425E-01
  0.1945000E+03   0.1900771E-01   0.2064793E-01   0.1982042E-01
  0.1955000E+03   0.1872887E-01   0.2033514E-01   0.1952234E-01
  0.1965000E+03   0.1845542E-01   0.2002808E-01   0.1922990E-01
  0.1975000E+03   0.1818723E-01   0.1972664E-01   0.1894299E-01
  0.1985000E+03   0.1792421E-01   0.1943072E-01   0.1866149E-01
  0.1995000E+03   0.1766623E-01   0.1914023E-01   0.1838530E-01
  0.2005000E+03   0.1741320E-01   0.1885505E-01   0.1811432E-01
  0.2015000E+03   0.1716501E-01   0.1857510E-01   0.1784843E-01
  0.2025000E+03   0.1692156E-01   0.1830026E-01   0.1758755E-01
  0.2035000E+03   0.1668275E-01   0.1803046E-01   0.1733156E-01
  0.2045000E+03   0.1644848E-01   0.1776559E-01   0.1708038E-01
  0.2055000E+03   0.1621866E-01   0.1750556E-01   0.1683390E-01
  0.2065000E+03   0.1599318E-01   0.1725027E-01   0.1659203E-01
  0.2075000E+03   0.1577197E-01   0.1699965E-01   0.1635467E-01
  0.2085000E+03   0.1555492E-01   0.1675359E-01   0.1612175E-01
  0.2095000E+03   0.1534196E-01   0.1651201E-01   0.1589316E-01
  0.2105000E+03   0.1513299E-01   0.1627483E-01   0.1566881E-01
  0.2115000E+03   0.1492793E-01   0.1604196E-01   0.1544863E-01
  0.2125000E+03   0.1472670E-01   0.1581332E-01   0.1523253E-01
  0.2135000E+03   0.1452921E-01   0.1558883E-01   0.1502043E-01
  0.2145000E+03   0.1433540E-01   0.1536840E-01   0.1481223E-01
  0.2155000E+03   0.1414517E-01   0.1515196E-01   0.1460788E-01
  0.2165000E+03   0.1395846E-01   0.1493943E-01   0.1440727E-01
  0.2175000E+03   0.1377518E-01   0.1473073E-01   0.1421035E-01
  0.2185000E+03   0.1359528E-01   0.1452580E-01   0.1401704E-01
  0.2195000E+03   0.1341867E-01   0.1432455E-01   0.1382725E-01
  0.2205000E+03   0.1324528E-01   0.1412691E-01   0.1364092E-01
  0.2215000E+03   0.1307506E-01   0.1393281E-01   0.1345799E-01
  0.2225000E+03   0.1290793E-01   0.1374220E-01   0.1327837E-01
  0.2235000E+03   0.1274383E-01   0.1355498E-01   0.1310200E-01
  0.2245000E+03   0.1258269E-01   0.1337111E-01   0.1292882E-01
  0.2255000E+03   0.1242445E-01   0.1319051E-01   0.1275876E-01
  0.2265000E+03   0.1226906E-01   0.1301312E-01   0.1259176E-01
  0.2275000E+03   0.1211644E-01   0.1283887E-01   0.1242775E-01
  0.2285000E+03   0.1196655E-01   0.1266772E-01   0.1226668E-01
  0.2295000E+03   0.1181933E-01   0.1249958E-01   0.1210848E-01
  0.2305000E+03   0.1167472E-01   0.1233441E-01   0.1195310E-01
  0.2315000E+03   0.1153266E-01   0.1217215E-01   0.1180047E-01
  0.2325000E+03   0.1139311E-01   0.1201273E-01   0.1165055E-01
  0.2335000E+03   0.1125602E-01   0.1185611E-01   0.1150328E-01
  0.2345000E+03   0.1112132E-01   0.1170223E-01   0.1135860E-01
  0.2355000E+03   0.1098897E-01   0.1155104E-01   0.1121646E-01
  0.2365000E+03   0.1085893E-01   0.1140247E-01   0.1107681E-01
  0.2375000E+03   0.1073115E-01   0.1125649E-01   0.1093960E-01
  0.2385000E+03   0.1060557E-01   0.1111303E-01   0.1080478E-01
  0.2395000E+03   0.1048216E-01   0.1097206E-01   0.1067230E-01
  0.2405000E+03   0.1036086E-01   0.1083352E-01   0.1054212E-01
  0.2415000E+03   0.1024165E-01   0.1069736E-01   0.1041419E-01
  0.2425000E+03   0.1012447E-01   0.1056354E-01   0.1028846E-01
  0.2435000E+03   0.1000928E-01   0.1043201E-01   0.1016489E-01
  0.2445000E+03   0.9896037E-02   0.1030273E-01   0.1004344E-01
  0.2455000E+03   0.9784711E-02   0.1017565E-01   0.9924058E-02
  0.2465000E+03   0.9675259E-02   0.1005073E-01   0.9806711E-02
  0.2475000E+03   0.9567642E-02   0.9927924E-02   0.9691355E-02
  0.2485000E+03   0.9461825E-02   0.9807198E-02   0.9577952E-02
  0.2495000E+03   0.9357770E-02   0.9688509E-02   0.9466462E-02
  0.2505000E+03   0.9255442E-02   0.9571816E-02   0.9356847E-02
  0.2515000E+03   0.9154806E-02   0.9457081E-02   0.9249070E-02
  0.2525000E+03   0.9055830E-02   0.9344265E-02   0.9143094E-02
  0.2535000E+03   0.8958479E-02   0.9233333E-02   0.9038885E-02
  0.2545000E+03   0.8862721E-02   0.9124246E-02   0.8936407E-02
  0.2555000E+03   0.8768525E-02   0.9016970E-02   0.8835627E-02
  0.2565000E+03   0.8675859E-02   0.8911470E-02   0.8736510E-02
  0.2575000E+03   0.8584694E-02   0.8807712E-02   0.8639024E-02
  0.2585000E+03   0.8495000E-02   0.8705661E-02   0.8543137E-02
  0.2595000E+03   0.8406748E-02   0.8605285E-02   0.8448819E-02
  0.2605000E+03   0.8319910E-02   0.8506552E-02   0.8356037E-02
  0.2615000E+03   0.8234457E-02   0.8409431E-02   0.8264764E-02
  0.2625000E+03   0.8150363E-02   0.8313891E-02   0.8174968E-02
  0.2635000E+03   0.8067602E-02   0.8219901E-02   0.8086622E-02
  0.2645000E+03   0.7986147E-02   0.8127432E-02   0.7999697E-02
  0.2655000E+03   0.7905973E-02   0.8036455E-02   0.7914166E-02
  0.2665000E+03   0.7827056E-02   0.7946941E-02   0.7830002E-02
  0.2675000E+03   0.7747180E-02   0.7858864E-02   0.7747180E-02
  0.2685000E+03   0.7665672E-02   0.7772195E-02   0.7665672E-02
  0.2695000E+03   0.7585454E-02   0.7686908E-02   0.7585454E-02
  0.2705000E+03   0.7506501E-02   0.7602977E-02   0.7506501E-02
  0.2715000E+03   0.7428790E-02   0.7520377E-02   0.7428790E-02
  0.2725000E+03   0.7352296E-02   0.7439082E-02   0.7352296E-02
  0.2735000E+03   0.7276997E-02   0.7359068E-02   0.7276997E-02
  0.2745000E+03   0.7202869E-02   0.7280311E-02   0.7202869E-02
  0.2755000E+03   0.7129891E-02   0.7202788E-02   0.7129891E-02
  0.2765000E+03   0.7058041E-02   0.7126475E-02   0.7058041E-02
  0.2775000E+03   0.6987298E-02   0.7051350E-02   0.6987298E-02
  0.2785000E+03   0.6917641E-02   0.6977391E-02   0.6917641E-02
  0.2795000E+03   0.6849050E-02   0.6905121E-02   0.6849050E-02
  0.2805000E+03   0.6781504E-02   0.6841473E-02   0.6781504E-02
  0.2815000E+03   0.6714985E-02   0.6778768E-02   0.6714985E-02
  0.2825000E+03   0.6649473E-02   0.6716988E-02   0.6649473E-02
  0.2835000E+03   0.6584949E-02   0.6656117E-02   0.6584949E-02
  0.2845000E+03   0.6521396E-02   0.6596138E-02   0.6521396E-02
  0.2855000E+03   0.6458795E-02   0.6537034E-02   0.6458795E-02
  0.2865000E+03   0.6397129E-02   0.6478789E-02   0.6397129E-02
  0.2875000E+03   0.6336381E-02   0.6421388E-02   0.6336381E-02
  0.2885000E+03   0.6276534E-02   0.6364815E-02   0.6276534E-02
  0.2895000E+03   0.6217571E-02   0.6309055E-02   0.6217571E-02
  0.2905000E+03   0.6159476E-02   0.6254094E-02   0.6159476E-02
  0.2915000E+03   0.6102234E-02   0.6199916E-02   0.6102234E-02
  0.2925000E+03   0.6045829E-02   0.6146508E-02   0.6045829E-02
  0.2935000E+03   0.5990246E-02   0.6093856E-02   0.5990246E-02
  0.2945000E+03   0.5935470E-02   0.6041947E-02   0.5935470E-02
  0.2955000E+03   0.5879119E-02   0.5990767E-02   0.5881487E-02
  0.2965000E+03   0.5822843E-02   0.5940303E-02   0.5828281E-02
  0.2975000E+03   0.5767389E-02   0.5890542E-02   0.5775841E-02
  0.2985000E+03   0.5712743E-02   0.5841472E-02   0.5724151E-02
  0.2995000E+03   0.5658891E-02   0.5793081E-02   0.5673199E-02
  0.3005000E+03   0.5605818E-02   0.5745357E-02   0.5622970E-02
  0.3015000E+03   0.5553511E-02   0.5698288E-02   0.5573454E-02
  0.3025000E+03   0.5501956E-02   0.5651862E-02   0.5524636E-02
  0.3035000E+03   0.5451140E-02   0.5606068E-02   0.5476505E-02
  0.3045000E+03   0.5401050E-02   0.5560896E-02   0.5429048E-02
  0.3055000E+03   0.5351673E-02   0.5516335E-02   0.5382254E-02
  0.3065000E+03   0.5302997E-02   0.5472373E-02   0.5336111E-02
  0.3075000E+03   0.5255009E-02   0.5429001E-02   0.5290608E-02
  0.3085000E+03   0.5207698E-02   0.5386208E-02   0.5245734E-02
  0.3095000E+03   0.5161052E-02   0.5343984E-02   0.5201477E-02
  0.3105000E+03   0.5115060E-02   0.5302321E-02   0.5157828E-02
