             #w        R(w)_min        R(w)_max        R(w)_avg
  0.5000000E+00   0.5436068E-05   0.2033182E-04   0.1022345E-04
  0.1500000E+01   0.7004368E-05   0.2457167E-04   0.1261366E-04
  0.2500000E+01   0.8910830E-05   0.2953470E-04   0.1546597E-04
  0.3500000E+01   0.1120533E-04   0.3530987E-04   0.1884678E-04
  0.4500000E+01   0.1394112E-04   0.4199040E-04   0.2282702E-04
  0.5500000E+01   0.1717434E-04   0.4967259E-04   0.2748151E-04
  0.6500000E+01   0.2096348E-04   0.5845462E-04   0.3288806E-04
  0.7500000E+01   0.2536877E-04   0.6843519E-04   0.3912665E-04
  0.8500000E+01   0.3045194E-04   0.7971242E-04   0.4627870E-04
  0.9500000E+01   0.3627641E-04   0.9238325E-04   0.5442700E-04
  0.1050000E+02   0.4290872E-04   0.1065439E-03   0.6365654E-04
  0.1150000E+02   0.5042154E-04   0.1222921E-03   0.7405724E-04
  0.1250000E+02   0.5889940E-04   0.1397317E-03   0.8572901E-04
  0.1350000E+02   0.6844747E-04   0.1589807E-03   0.9879017E-04
  0.1450000E+02   0.7920392E-04   0.1801826E-03   0.1133892E-03
  0.1550000E+02   0.9135499E-04   0.2035202E-03   0.1297193E-03
  0.1650000E+02   0.1051506E-03   0.2292305E-03   0.1480334E-03
  0.1750000E+02   0.1209168E-03   0.2576158E-03   0.1686561E-03
  0.1850000E+02   0.1390601E-03   0.2890466E-03   0.1919870E-03
  0.1950000E+02   0.1600589E-03   0.3239534E-03   0.2184927E-03
  0.2050000E+02   0.1844420E-03   0.3628034E-03   0.2486837E-03
  0.2150000E+02   0.2127553E-03   0.4060683E-03   0.2830818E-03
  0.2250000E+02   0.2455246E-03   0.4541875E-03   0.3221828E-03
  0.2350000E+02   0.2832232E-03   0.5075366E-03   0.3664246E-03
  0.2450000E+02   0.3262513E-03   0.5664084E-03   0.4161666E-03
  0.2550000E+02   0.3749279E-03   0.6310066E-03   0.4716825E-03
  0.2650000E+02   0.4294961E-03   0.7014516E-03   0.5331661E-03
  0.2750000E+02   0.4901348E-03   0.7777945E-03   0.6007435E-03
  0.2850000E+02   0.5569730E-03   0.8600320E-03   0.6744878E-03
  0.2950000E+02   0.6301031E-03   0.9481213E-03   0.7544334E-03
  0.3050000E+02   0.7095911E-03   0.1041991E-02   0.8405858E-03
  0.3150000E+02   0.7954825E-03   0.1141549E-02   0.9329294E-03
  0.3250000E+02   0.8878055E-03   0.1246687E-02   0.1031430E-02
  0.3350000E+02   0.9865716E-03   0.1357280E-02   0.1136038E-02
  0.3450000E+02   0.1091774E-02   0.1473192E-02   0.1246684E-02
  0.3550000E+02   0.1203387E-02   0.1594269E-02   0.1363283E-02
  0.3650000E+02   0.1321362E-02   0.1720344E-02   0.1485727E-02
  0.3750000E+02   0.1445625E-02   0.1851230E-02   0.1613889E-02
  0.3850000E+02   0.1576078E-02   0.1986724E-02   0.1747616E-02
  0.3950000E+02   0.1712592E-02   0.2126605E-02   0.1886732E-02
  0.4050000E+02   0.1855011E-02   0.2270634E-02   0.2031037E-02
  0.4150000E+02   0.2003149E-02   0.2418553E-02   0.2180304E-02
  0.4250000E+02   0.2156789E-02   0.2570088E-02   0.2334282E-02
  0.4350000E+02   0.2315685E-02   0.2724946E-02   0.2492697E-02
  0.4450000E+02   0.2479562E-02   0.2882821E-02   0.2655250E-02
  0.4550000E+02   0.2648117E-02   0.3043390E-02   0.2821621E-02
  0.4650000E+02   0.2821021E-02   0.3206321E-02   0.2991468E-02
  0.4750000E+02   0.2997918E-02   0.3371268E-02   0.3164432E-02
  0.4850000E+02   0.3178433E-02   0.3537877E-02   0.3340136E-02
  0.4950000E+02   0.3362165E-02   0.3705784E-02   0.3518189E-02
  0.5050000E+02   0.3548700E-02   0.3874623E-02   0.3698188E-02
  0.5150000E+02   0.3737605E-02   0.4044023E-02   0.3879719E-02
  0.5250000E+02   0.3928434E-02   0.4213609E-02   0.4062359E-02
  0.5350000E+02   0.4120729E-02   0.4383010E-02   0.4245682E-02
  0.5450000E+02   0.4314027E-02   0.4551853E-02   0.4429258E-02
  0.5550000E+02   0.4507858E-02   0.4719771E-02   0.4612655E-02
  0.5650000E+02   0.4701749E-02   0.4886403E-02   0.4795444E-02
  0.5750000E+02   0.4895226E-02   0.5051393E-02   0.4977199E-02
  0.5850000E+02   0.5087821E-02   0.5214395E-02   0.5157502E-02
  0.5950000E+02   0.5279068E-02   0.5375073E-02   0.5335940E-02
  0.6050000E+02   0.5468509E-02   0.5533102E-02   0.5512113E-02
  0.6150000E+02   0.5655697E-02   0.5688171E-02   0.5685631E-02
  0.6250000E+02   0.5839981E-02   0.5856118E-02   0.5856118E-02
  0.6350000E+02   0.5988249E-02   0.6023213E-02   0.6023213E-02
  0.6450000E+02   0.6132707E-02   0.6199451E-02   0.6186571E-02
  0.6550000E+02   0.6273104E-02   0.6373412E-02   0.6345865E-02
  0.6650000E+02   0.6409205E-02   0.6543096E-02   0.6500789E-02
  0.6750000E+02   0.6540794E-02   0.6708152E-02   0.6651052E-02
  0.6850000E+02   0.6667670E-02   0.6868253E-02   0.6796386E-02
  0.6950000E+02   0.6789653E-02   0.7023090E-02   0.6936545E-02
  0.7050000E+02   0.6906580E-02   0.7172381E-02   0.7071302E-02
  0.7150000E+02   0.7018307E-02   0.7315865E-02   0.7200454E-02
  0.7250000E+02   0.7124705E-02   0.7453308E-02   0.7323817E-02
  0.7350000E+02   0.7225668E-02   0.7584498E-02   0.7441232E-02
  0.7450000E+02   0.7321103E-02   0.7709248E-02   0.7552560E-02
  0.7550000E+02   0.7410938E-02   0.7827396E-02   0.7657683E-02
  0.7650000E+02   0.7495116E-02   0.7938804E-02   0.7756505E-02
  0.7750000E+02   0.7573597E-02   0.8043358E-02   0.7848952E-02
  0.7850000E+02   0.7646358E-02   0.8140969E-02   0.7934968E-02
  0.7950000E+02   0.7713389E-02   0.8231568E-02   0.8014518E-02
  0.8050000E+02   0.7774697E-02   0.8315112E-02   0.8087585E-02
  0.8150000E+02   0.7830303E-02   0.8391579E-02   0.8154172E-02
  0.8250000E+02   0.7880240E-02   0.8460965E-02   0.8214298E-02
  0.8350000E+02   0.7924556E-02   0.8523290E-02   0.8267999E-02
  0.8450000E+02   0.7963309E-02   0.8578590E-02   0.8315326E-02
  0.8550000E+02   0.7996569E-02   0.8626923E-02   0.8356346E-02
  0.8650000E+02   0.8024418E-02   0.8668360E-02   0.8391139E-02
  0.8750000E+02   0.8046944E-02   0.8702991E-02   0.8419799E-02
  0.8850000E+02   0.8064248E-02   0.8730919E-02   0.8442431E-02
  0.8950000E+02   0.8076436E-02   0.8752263E-02   0.8459152E-02
  0.9050000E+02   0.8083625E-02   0.8767153E-02   0.8470087E-02
  0.9150000E+02   0.8085935E-02   0.8775733E-02   0.8475373E-02
  0.9250000E+02   0.8083495E-02   0.8778154E-02   0.8475154E-02
  0.9350000E+02   0.8076437E-02   0.8774581E-02   0.8469580E-02
  0.9450000E+02   0.8064900E-02   0.8765185E-02   0.8458810E-02
  0.9550000E+02   0.8049024E-02   0.8750144E-02   0.8443006E-02
  0.9650000E+02   0.8028956E-02   0.8729644E-02   0.8422338E-02
  0.9750000E+02   0.8004843E-02   0.8703875E-02   0.8396977E-02
  0.9850000E+02   0.7976834E-02   0.8673033E-02   0.8367098E-02
  0.9950000E+02   0.7945082E-02   0.8637316E-02   0.8332880E-02
  0.1005000E+03   0.7909740E-02   0.8596928E-02   0.8294502E-02
  0.1015000E+03   0.7870959E-02   0.8552071E-02   0.8252144E-02
  0.1025000E+03   0.7828895E-02   0.8502951E-02   0.8205989E-02
  0.1035000E+03   0.7783700E-02   0.8449773E-02   0.8156218E-02
  0.1045000E+03   0.7735526E-02   0.8392742E-02   0.8103011E-02
  0.1055000E+03   0.7684526E-02   0.8332062E-02   0.8046547E-02
  0.1065000E+03   0.7630847E-02   0.8267938E-02   0.7987006E-02
  0.1075000E+03   0.7574640E-02   0.8200569E-02   0.7924563E-02
  0.1085000E+03   0.7516050E-02   0.8130155E-02   0.7859393E-02
  0.1095000E+03   0.7455220E-02   0.8056890E-02   0.7791665E-02
  0.1105000E+03   0.7392292E-02   0.7980967E-02   0.7721549E-02
  0.1115000E+03   0.7327405E-02   0.7902575E-02   0.7649209E-02
  0.1125000E+03   0.7260693E-02   0.7821898E-02   0.7574806E-02
  0.1135000E+03   0.7192290E-02   0.7739116E-02   0.7498497E-02
  0.1145000E+03   0.7122324E-02   0.7654405E-02   0.7420436E-02
  0.1155000E+03   0.7050921E-02   0.7567935E-02   0.7340772E-02
  0.1165000E+03   0.6978202E-02   0.7479871E-02   0.7259650E-02
  0.1175000E+03   0.6904288E-02   0.7390375E-02   0.7177211E-02
  0.1185000E+03   0.6829291E-02   0.7299601E-02   0.7093589E-02
  0.1195000E+03   0.6753324E-02   0.7207699E-02   0.7008917E-02
  0.1205000E+03   0.6676494E-02   0.7114814E-02   0.6923322E-02
  0.1215000E+03   0.6598905E-02   0.7021084E-02   0.6836924E-02
  0.1225000E+03   0.6520656E-02   0.6926642E-02   0.6749841E-02
  0.1235000E+03   0.6441842E-02   0.6831617E-02   0.6662187E-02
  0.1245000E+03   0.6362558E-02   0.6736130E-02   0.6574068E-02
  0.1255000E+03   0.6282889E-02   0.6640298E-02   0.6485588E-02
  0.1265000E+03   0.6202922E-02   0.6544232E-02   0.6396846E-02
  0.1275000E+03   0.6122738E-02   0.6448038E-02   0.6307935E-02
  0.1285000E+03   0.6042413E-02   0.6351818E-02   0.6218946E-02
  0.1295000E+03   0.5962021E-02   0.6255665E-02   0.6129963E-02
  0.1305000E+03   0.5881632E-02   0.6159672E-02   0.6041066E-02
  0.1315000E+03   0.5801314E-02   0.6063922E-02   0.5952334E-02
  0.1325000E+03   0.5721129E-02   0.5968497E-02   0.5863837E-02
  0.1335000E+03   0.5641137E-02   0.5873472E-02   0.5775645E-02
  0.1345000E+03   0.5561396E-02   0.5778918E-02   0.5687822E-02
  0.1355000E+03   0.5481958E-02   0.5684903E-02   0.5600427E-02
  0.1365000E+03   0.5402874E-02   0.5591487E-02   0.5513519E-02
  0.1375000E+03   0.5324191E-02   0.5498730E-02   0.5427150E-02
  0.1385000E+03   0.5245956E-02   0.5406686E-02   0.5341369E-02
  0.1395000E+03   0.5168208E-02   0.5315403E-02   0.5256224E-02
  0.1405000E+03   0.5090987E-02   0.5224930E-02   0.5171757E-02
  0.1415000E+03   0.5014330E-02   0.5135308E-02   0.5088008E-02
  0.1425000E+03   0.4938270E-02   0.5046577E-02   0.5005013E-02
  0.1435000E+03   0.4862840E-02   0.4958772E-02   0.4922807E-02
  0.1445000E+03   0.4788068E-02   0.4871927E-02   0.4841421E-02
  0.1455000E+03   0.4713981E-02   0.4786070E-02   0.4760883E-02
  0.1465000E+03   0.4640603E-02   0.4701229E-02   0.4681220E-02
  0.1475000E+03   0.4567959E-02   0.4617428E-02   0.4602453E-02
  0.1485000E+03   0.4496067E-02   0.4534687E-02   0.4524605E-02
  0.1495000E+03   0.4424947E-02   0.4453025E-02   0.4447694E-02
  0.1505000E+03   0.4354615E-02   0.4372459E-02   0.4371737E-02
  0.1515000E+03   0.4285088E-02   0.4296748E-02   0.4296748E-02
  0.1525000E+03   0.4214668E-02   0.4222741E-02   0.4222741E-02
  0.1535000E+03   0.4137464E-02   0.4149726E-02   0.4149726E-02
  0.1545000E+03   0.4061400E-02   0.4081456E-02   0.4077712E-02
  0.1555000E+03   0.3986481E-02   0.4015263E-02   0.4006707E-02
  0.1565000E+03   0.3912712E-02   0.3949926E-02   0.3936716E-02
  0.1575000E+03   0.3840095E-02   0.3885452E-02   0.3867744E-02
  0.1585000E+03   0.3768632E-02   0.3821845E-02   0.3799794E-02
  0.1595000E+03   0.3698322E-02   0.3759110E-02   0.3732869E-02
  0.1605000E+03   0.3629165E-02   0.3697249E-02   0.3666967E-02
  0.1615000E+03   0.3561157E-02   0.3636264E-02   0.3602090E-02
  0.1625000E+03   0.3494294E-02   0.3576156E-02   0.3538235E-02
  0.1635000E+03   0.3428571E-02   0.3516924E-02   0.3475399E-02
  0.1645000E+03   0.3363983E-02   0.3458569E-02   0.3413579E-02
  0.1655000E+03   0.3300523E-02   0.3401087E-02   0.3352771E-02
  0.1665000E+03   0.3238182E-02   0.3344477E-02   0.3292968E-02
  0.1675000E+03   0.3176952E-02   0.3288735E-02   0.3234166E-02
  0.1685000E+03   0.3116825E-02   0.3233857E-02   0.3176356E-02
  0.1695000E+03   0.3057789E-02   0.3179839E-02   0.3119533E-02
  0.1705000E+03   0.2999835E-02   0.3126675E-02   0.3063687E-02
  0.1715000E+03   0.2942951E-02   0.3074361E-02   0.3008810E-02
  0.1725000E+03   0.2887125E-02   0.3022889E-02   0.2954893E-02
  0.1735000E+03   0.2832347E-02   0.2972254E-02   0.2901927E-02
  0.1745000E+03   0.2778602E-02   0.2922448E-02   0.2849902E-02
  0.1755000E+03   0.2725879E-02   0.2873464E-02   0.2798806E-02
  0.1765000E+03   0.2674164E-02   0.2825294E-02   0.2748631E-02
  0.1775000E+03   0.2623443E-02   0.2777930E-02   0.2699364E-02
  0.1785000E+03   0.2573704E-02   0.2731364E-02   0.2650994E-02
  0.1795000E+03   0.2524931E-02   0.2685587E-02   0.2603510E-02
  0.1805000E+03   0.2477112E-02   0.2640590E-02   0.2556900E-02
  0.1815000E+03   0.2430231E-02   0.2596365E-02   0.2511153E-02
  0.1825000E+03   0.2384274E-02   0.2552901E-02   0.2466256E-02
  0.1835000E+03   0.2339227E-02   0.2510189E-02   0.2422197E-02
  0.1845000E+03   0.2295076E-02   0.2468221E-02   0.2378964E-02
  0.1855000E+03   0.2251805E-02   0.2426986E-02   0.2336545E-02
  0.1865000E+03   0.2209401E-02   0.2386473E-02   0.2294926E-02
  0.1875000E+03   0.2167848E-02   0.2346675E-02   0.2254097E-02
  0.1885000E+03   0.2127132E-02   0.2307579E-02   0.2214043E-02
  0.1895000E+03   0.2087238E-02   0.2269177E-02   0.2174753E-02
  0.1905000E+03   0.2048152E-02   0.2231459E-02   0.2136215E-02
  0.1915000E+03   0.2009860E-02   0.2194413E-02   0.2098415E-02
  0.1925000E+03   0.1972346E-02   0.2158031E-02   0.2061342E-02
  0.1935000E+03   0.1935598E-02   0.2122301E-02   0.2024982E-02
  0.1945000E+03   0.1899600E-02   0.2087215E-02   0.1989324E-02
  0.1955000E+03   0.1864338E-02   0.2052761E-02   0.1954356E-02
  0.1965000E+03   0.1829800E-02   0.2018929E-02   0.1920064E-02
  0.1975000E+03   0.1795969E-02   0.1985710E-02   0.1886438E-02
  0.1985000E+03   0.1762835E-02   0.1953094E-02   0.1853465E-02
  0.1995000E+03   0.1730381E-02   0.1921070E-02   0.1821133E-02
  0.2005000E+03   0.1698596E-02   0.1889629E-02   0.1789431E-02
  0.2015000E+03   0.1667466E-02   0.1858761E-02   0.1758347E-02
  0.2025000E+03   0.1636978E-02   0.1828456E-02   0.1727869E-02
  0.2035000E+03   0.1607120E-02   0.1798705E-02   0.1697986E-02
  0.2045000E+03   0.1577877E-02   0.1769498E-02   0.1668687E-02
  0.2055000E+03   0.1549239E-02   0.1740825E-02   0.1639961E-02
  0.2065000E+03   0.1521192E-02   0.1712678E-02   0.1611796E-02
  0.2075000E+03   0.1493725E-02   0.1685046E-02   0.1584182E-02
  0.2085000E+03   0.1466826E-02   0.1657921E-02   0.1557108E-02
  0.2095000E+03   0.1440482E-02   0.1631293E-02   0.1530563E-02
  0.2105000E+03   0.1414682E-02   0.1605154E-02   0.1504538E-02
  0.2115000E+03   0.1389416E-02   0.1579495E-02   0.1479022E-02
  0.2125000E+03   0.1364671E-02   0.1554307E-02   0.1454005E-02
  0.2135000E+03   0.1340436E-02   0.1529581E-02   0.1429477E-02
  0.2145000E+03   0.1316701E-02   0.1505309E-02   0.1405428E-02
  0.2155000E+03   0.1293456E-02   0.1481482E-02   0.1381849E-02
  0.2165000E+03   0.1270689E-02   0.1458093E-02   0.1358730E-02
  0.2175000E+03   0.1248391E-02   0.1435133E-02   0.1336062E-02
  0.2185000E+03   0.1226551E-02   0.1412593E-02   0.1313836E-02
  0.2195000E+03   0.1205160E-02   0.1390467E-02   0.1292043E-02
  0.2205000E+03   0.1184208E-02   0.1368746E-02   0.1270674E-02
  0.2215000E+03   0.1163686E-02   0.1347422E-02   0.1249721E-02
  0.2225000E+03   0.1143584E-02   0.1326489E-02   0.1229174E-02
  0.2235000E+03   0.1123892E-02   0.1305938E-02   0.1209026E-02
  0.2245000E+03   0.1104603E-02   0.1285762E-02   0.1189269E-02
  0.2255000E+03   0.1085707E-02   0.1265955E-02   0.1169894E-02
  0.2265000E+03   0.1067196E-02   0.1246508E-02   0.1150893E-02
  0.2275000E+03   0.1049062E-02   0.1227416E-02   0.1132259E-02
  0.2285000E+03   0.1031295E-02   0.1208671E-02   0.1113985E-02
  0.2295000E+03   0.1013889E-02   0.1190266E-02   0.1096062E-02
  0.2305000E+03   0.9968350E-03   0.1172196E-02   0.1078484E-02
  0.2315000E+03   0.9801254E-03   0.1154453E-02   0.1061243E-02
  0.2325000E+03   0.9637528E-03   0.1137031E-02   0.1044333E-02
  0.2335000E+03   0.9477096E-03   0.1119924E-02   0.1027746E-02
  0.2345000E+03   0.9319888E-03   0.1103125E-02   0.1011476E-02
  0.2355000E+03   0.9165831E-03   0.1086630E-02   0.9955158E-03
  0.2365000E+03   0.9014857E-03   0.1070431E-02   0.9798595E-03
  0.2375000E+03   0.8866898E-03   0.1054523E-02   0.9645006E-03
  0.2385000E+03   0.8721887E-03   0.1038901E-02   0.9494330E-03
  0.2395000E+03   0.8579760E-03   0.1023558E-02   0.9346504E-03
  0.2405000E+03   0.8440453E-03   0.1008490E-02   0.9201470E-03
  0.2415000E+03   0.8303903E-03   0.9936902E-03   0.9059170E-03
  0.2425000E+03   0.8170051E-03   0.9791543E-03   0.8919546E-03
  0.2435000E+03   0.8038837E-03   0.9648770E-03   0.8782544E-03
  0.2445000E+03   0.7910203E-03   0.9508530E-03   0.8648107E-03
  0.2455000E+03   0.7784092E-03   0.9370775E-03   0.8516183E-03
  0.2465000E+03   0.7660449E-03   0.9235456E-03   0.8386720E-03
  0.2475000E+03   0.7539220E-03   0.9102524E-03   0.8259665E-03
  0.2485000E+03   0.7420351E-03   0.8971933E-03   0.8134970E-03
  0.2495000E+03   0.7303791E-03   0.8843638E-03   0.8012585E-03
  0.2505000E+03   0.7189489E-03   0.8717592E-03   0.7892461E-03
  0.2515000E+03   0.7077396E-03   0.8593753E-03   0.7774553E-03
  0.2525000E+03   0.6967464E-03   0.8472076E-03   0.7658814E-03
  0.2535000E+03   0.6859645E-03   0.8352520E-03   0.7545198E-03
  0.2545000E+03   0.6753893E-03   0.8235043E-03   0.7433663E-03
  0.2555000E+03   0.6650164E-03   0.8119604E-03   0.7324164E-03
  0.2565000E+03   0.6548412E-03   0.8006163E-03   0.7216660E-03
  0.2575000E+03   0.6448596E-03   0.7894682E-03   0.7111110E-03
  0.2585000E+03   0.6350673E-03   0.7785122E-03   0.7007473E-03
  0.2595000E+03   0.6254602E-03   0.7677446E-03   0.6905709E-03
  0.2605000E+03   0.6160343E-03   0.7571616E-03   0.6805781E-03
  0.2615000E+03   0.6067857E-03   0.7467597E-03   0.6707650E-03
  0.2625000E+03   0.5977105E-03   0.7365354E-03   0.6611280E-03
  0.2635000E+03   0.5888051E-03   0.7264852E-03   0.6516635E-03
  0.2645000E+03   0.5800657E-03   0.7166058E-03   0.6423678E-03
  0.2655000E+03   0.5714888E-03   0.7068938E-03   0.6332376E-03
  0.2665000E+03   0.5630709E-03   0.6973459E-03   0.6242694E-03
  0.2675000E+03   0.5548086E-03   0.6879591E-03   0.6154600E-03
  0.2685000E+03   0.5466986E-03   0.6787301E-03   0.6068062E-03
  0.2695000E+03   0.5387376E-03   0.6696560E-03   0.5983047E-03
  0.2705000E+03   0.5309225E-03   0.6607337E-03   0.5899525E-03
  0.2715000E+03   0.5232502E-03   0.6519604E-03   0.5817466E-03
  0.2725000E+03   0.5157176E-03   0.6433331E-03   0.5736839E-03
  0.2735000E+03   0.5083217E-03   0.6348491E-03   0.5657617E-03
  0.2745000E+03   0.5010598E-03   0.6265056E-03   0.5579770E-03
  0.2755000E+03   0.4939289E-03   0.6183000E-03   0.5503271E-03
  0.2765000E+03   0.4869263E-03   0.6102295E-03   0.5428093E-03
  0.2775000E+03   0.4800494E-03   0.6022916E-03   0.5354210E-03
  0.2785000E+03   0.4732954E-03   0.5944838E-03   0.5281595E-03
  0.2795000E+03   0.4666619E-03   0.5868037E-03   0.5210223E-03
  0.2805000E+03   0.4601462E-03   0.5792487E-03   0.5140070E-03
  0.2815000E+03   0.4537461E-03   0.5718165E-03   0.5071111E-03
  0.2825000E+03   0.4474590E-03   0.5645048E-03   0.5003322E-03
  0.2835000E+03   0.4412826E-03   0.5573113E-03   0.4936681E-03
  0.2845000E+03   0.4352146E-03   0.5502337E-03   0.4871164E-03
  0.2855000E+03   0.4292529E-03   0.5432700E-03   0.4806749E-03
  0.2865000E+03   0.4233952E-03   0.5364180E-03   0.4743415E-03
  0.2875000E+03   0.4176394E-03   0.5296754E-03   0.4681141E-03
  0.2885000E+03   0.4119834E-03   0.5230404E-03   0.4619905E-03
  0.2895000E+03   0.4064251E-03   0.5165109E-03   0.4559688E-03
  0.2905000E+03   0.4009627E-03   0.5100850E-03   0.4500469E-03
  0.2915000E+03   0.3955941E-03   0.5037606E-03   0.4442228E-03
  0.2925000E+03   0.3903174E-03   0.4975360E-03   0.4384948E-03
  0.2935000E+03   0.3851309E-03   0.4914092E-03   0.4328610E-03
  0.2945000E+03   0.3800326E-03   0.4853784E-03   0.4273194E-03
  0.2955000E+03   0.3750208E-03   0.4794420E-03   0.4218684E-03
  0.2965000E+03   0.3700938E-03   0.4735981E-03   0.4165061E-03
  0.2975000E+03   0.3652499E-03   0.4678450E-03   0.4112310E-03
  0.2985000E+03   0.3604874E-03   0.4621812E-03   0.4060412E-03
  0.2995000E+03   0.3558047E-03   0.4566048E-03   0.4009352E-03
  0.3005000E+03   0.3512002E-03   0.4511144E-03   0.3959115E-03
  0.3015000E+03   0.3466725E-03   0.4457084E-03   0.3909683E-03
  0.3025000E+03   0.3422199E-03   0.4403852E-03   0.3861042E-03
  0.3035000E+03   0.3378410E-03   0.4351434E-03   0.3813177E-03
  0.3045000E+03   0.3335344E-03   0.4299814E-03   0.3766073E-03
  0.3055000E+03   0.3292987E-03   0.4248978E-03   0.3719716E-03
  0.3065000E+03   0.3251324E-03   0.4198912E-03   0.3674092E-03
  0.3075000E+03   0.3210342E-03   0.4149603E-03   0.3629187E-03
  0.3085000E+03   0.3170028E-03   0.4101036E-03   0.3584988E-03
  0.3095000E+03   0.3130370E-03   0.4053198E-03   0.3541481E-03
  0.3105000E+03   0.3091354E-03   0.4006077E-03   0.3498654E-03
