             #w        R(w)_min        R(w)_max        R(w)_avg
  0.5000000E+00   0.1633936E-06   0.6798633E-03   0.3846363E-04
  0.1500000E+01   0.4367610E-06   0.9513295E-03   0.6796151E-04
  0.2500000E+01   0.1100368E-05   0.1304513E-02   0.1159393E-03
  0.3500000E+01   0.2620402E-05   0.1754823E-02   0.1913247E-03
  0.4500000E+01   0.5914817E-05   0.2318051E-02   0.3059560E-03
  0.5500000E+01   0.1268884E-04   0.3009757E-02   0.4749304E-03
  0.6500000E+01   0.2593758E-04   0.3844609E-02   0.7167732E-03
  0.7500000E+01   0.5064538E-04   0.4835692E-02   0.1053358E-02
  0.8500000E+01   0.9468594E-04   0.5993845E-02   0.1509526E-02
  0.9500000E+01   0.1698853E-03   0.7327051E-02   0.2112375E-02
  0.1050000E+02   0.2931552E-03   0.8839938E-02   0.2890224E-02
  0.1150000E+02   0.4875472E-03   0.1053341E-01   0.3871309E-02
  0.1250000E+02   0.7830297E-03   0.1240440E-01   0.5082274E-02
  0.1350000E+02   0.1216769E-02   0.1444586E-01   0.6546570E-02
  0.1450000E+02   0.1832710E-02   0.1664681E-01   0.8282890E-02
  0.1550000E+02   0.2680316E-02   0.1899262E-01   0.1030375E-01
  0.1650000E+02   0.3812409E-02   0.2146538E-01   0.1261436E-01
  0.1750000E+02   0.5282196E-02   0.2404439E-01   0.1521179E-01
  0.1850000E+02   0.7139669E-02   0.2670674E-01   0.1808467E-01
  0.1950000E+02   0.9427690E-02   0.2942793E-01   0.2121317E-01
  0.2050000E+02   0.1217813E-01   0.3218252E-01   0.2456955E-01
  0.2150000E+02   0.1540844E-01   0.3494471E-01   0.2811901E-01
  0.2250000E+02   0.1911905E-01   0.3768901E-01   0.3182087E-01
  0.2350000E+02   0.2329182E-01   0.4039076E-01   0.3563002E-01
  0.2450000E+02   0.2788969E-01   0.4302659E-01   0.3949841E-01
  0.2550000E+02   0.3285766E-01   0.4557485E-01   0.4337670E-01
  0.2650000E+02   0.3812485E-01   0.4801594E-01   0.4721577E-01
  0.2750000E+02   0.4360752E-01   0.5096819E-01   0.5096819E-01
  0.2850000E+02   0.4921285E-01   0.5458944E-01   0.5458944E-01
  0.2950000E+02   0.5453513E-01   0.5803896E-01   0.5803896E-01
  0.3050000E+02   0.5639894E-01   0.6128101E-01   0.6128101E-01
  0.3150000E+02   0.5809378E-01   0.6578622E-01   0.6428515E-01
  0.3250000E+02   0.5961468E-01   0.7091468E-01   0.6702666E-01
  0.3350000E+02   0.6095894E-01   0.7570519E-01   0.6948658E-01
  0.3450000E+02   0.6212591E-01   0.8008986E-01   0.7165166E-01
  0.3550000E+02   0.6311685E-01   0.8401382E-01   0.7351413E-01
  0.3650000E+02   0.6393468E-01   0.8743597E-01   0.7507131E-01
  0.3750000E+02   0.6458379E-01   0.9032896E-01   0.7632514E-01
  0.3850000E+02   0.6506983E-01   0.9267868E-01   0.7728165E-01
  0.3950000E+02   0.6539950E-01   0.9448327E-01   0.7795039E-01
  0.4050000E+02   0.6558030E-01   0.9575182E-01   0.7834386E-01
  0.4150000E+02   0.6562043E-01   0.9650283E-01   0.7847690E-01
  0.4250000E+02   0.6552853E-01   0.9676257E-01   0.7836619E-01
  0.4350000E+02   0.6531357E-01   0.9656345E-01   0.7802968E-01
  0.4450000E+02   0.6498469E-01   0.9594239E-01   0.7748618E-01
  0.4550000E+02   0.6455108E-01   0.9493933E-01   0.7675490E-01
  0.4650000E+02   0.6402187E-01   0.9359592E-01   0.7585512E-01
  0.4750000E+02   0.6340602E-01   0.9195430E-01   0.7480587E-01
  0.4850000E+02   0.6271227E-01   0.9005613E-01   0.7362568E-01
  0.4950000E+02   0.6194907E-01   0.8794179E-01   0.7233237E-01
  0.5050000E+02   0.6112453E-01   0.8564975E-01   0.7094287E-01
  0.5150000E+02   0.6024634E-01   0.8321607E-01   0.6947317E-01
  0.5250000E+02   0.5932181E-01   0.8067411E-01   0.6793817E-01
  0.5350000E+02   0.5835781E-01   0.7805431E-01   0.6635166E-01
  0.5450000E+02   0.5736078E-01   0.7538410E-01   0.6472630E-01
  0.5550000E+02   0.5633668E-01   0.7268789E-01   0.6307362E-01
  0.5650000E+02   0.5529107E-01   0.6998717E-01   0.6140402E-01
  0.5750000E+02   0.5422905E-01   0.6730055E-01   0.5972685E-01
  0.5850000E+02   0.5315531E-01   0.6464401E-01   0.5805039E-01
  0.5950000E+02   0.5207409E-01   0.6203102E-01   0.5638196E-01
  0.6050000E+02   0.5098930E-01   0.5947275E-01   0.5472797E-01
  0.6150000E+02   0.4990442E-01   0.5697831E-01   0.5309395E-01
  0.6250000E+02   0.4882261E-01   0.5455492E-01   0.5148464E-01
  0.6350000E+02   0.4774667E-01   0.5220815E-01   0.4990406E-01
  0.6450000E+02   0.4667910E-01   0.4994208E-01   0.4835555E-01
  0.6550000E+02   0.4562210E-01   0.4775955E-01   0.4684187E-01
  0.6650000E+02   0.4457760E-01   0.4566224E-01   0.4536522E-01
  0.6750000E+02   0.4354729E-01   0.4392732E-01   0.4392732E-01
  0.6850000E+02   0.4172553E-01   0.4253261E-01   0.4252945E-01
  0.6950000E+02   0.3988536E-01   0.4153479E-01   0.4117252E-01
  0.7050000E+02   0.3812914E-01   0.4055487E-01   0.3985709E-01
  0.7150000E+02   0.3645516E-01   0.3959371E-01   0.3858344E-01
  0.7250000E+02   0.3486132E-01   0.3865201E-01   0.3735159E-01
  0.7350000E+02   0.3334528E-01   0.3773032E-01   0.3616132E-01
  0.7450000E+02   0.3190446E-01   0.3682906E-01   0.3501226E-01
  0.7550000E+02   0.3053616E-01   0.3594854E-01   0.3390384E-01
  0.7650000E+02   0.2923755E-01   0.3508894E-01   0.3283540E-01
  0.7750000E+02   0.2800575E-01   0.3425039E-01   0.3180614E-01
  0.7850000E+02   0.2683787E-01   0.3343288E-01   0.3081518E-01
  0.7950000E+02   0.2573101E-01   0.3263638E-01   0.2986157E-01
  0.8050000E+02   0.2468233E-01   0.3186074E-01   0.2894430E-01
  0.8150000E+02   0.2368900E-01   0.3110581E-01   0.2806231E-01
  0.8250000E+02   0.2274830E-01   0.3037136E-01   0.2721455E-01
  0.8350000E+02   0.2185755E-01   0.2965711E-01   0.2639990E-01
  0.8450000E+02   0.2101417E-01   0.2896276E-01   0.2561727E-01
  0.8550000E+02   0.2021569E-01   0.2828797E-01   0.2486554E-01
  0.8650000E+02   0.1945972E-01   0.2763239E-01   0.2414362E-01
  0.8750000E+02   0.1874397E-01   0.2699562E-01   0.2345041E-01
  0.8850000E+02   0.1806627E-01   0.2637728E-01   0.2278484E-01
  0.8950000E+02   0.1742452E-01   0.2577695E-01   0.2214585E-01
  0.9050000E+02   0.1681676E-01   0.2519421E-01   0.2153241E-01
  0.9150000E+02   0.1624110E-01   0.2462861E-01   0.2094350E-01
  0.9250000E+02   0.1569575E-01   0.2407974E-01   0.2037813E-01
  0.9350000E+02   0.1517903E-01   0.2354715E-01   0.1983537E-01
  0.9450000E+02   0.1468934E-01   0.2303039E-01   0.1931426E-01
  0.9550000E+02   0.1422516E-01   0.2252905E-01   0.1881394E-01
  0.9650000E+02   0.1378508E-01   0.2204267E-01   0.1833351E-01
  0.9750000E+02   0.1336773E-01   0.2157082E-01   0.1787215E-01
  0.9850000E+02   0.1297186E-01   0.2111309E-01   0.1742906E-01
  0.9950000E+02   0.1259626E-01   0.2066905E-01   0.1700346E-01
  0.1005000E+03   0.1223981E-01   0.2023828E-01   0.1659460E-01
  0.1015000E+03   0.1190144E-01   0.1982039E-01   0.1620176E-01
  0.1025000E+03   0.1158015E-01   0.1941496E-01   0.1582427E-01
  0.1035000E+03   0.1127500E-01   0.1902162E-01   0.1546147E-01
  0.1045000E+03   0.1098511E-01   0.1863998E-01   0.1511271E-01
  0.1055000E+03   0.1070964E-01   0.1826966E-01   0.1477740E-01
  0.1065000E+03   0.1044780E-01   0.1791032E-01   0.1445496E-01
  0.1075000E+03   0.1019886E-01   0.1756158E-01   0.1414483E-01
  0.1085000E+03   0.9962128E-02   0.1722311E-01   0.1384649E-01
  0.1095000E+03   0.9736944E-02   0.1689458E-01   0.1355943E-01
  0.1105000E+03   0.9522695E-02   0.1657565E-01   0.1328317E-01
  0.1115000E+03   0.9318802E-02   0.1626602E-01   0.1301723E-01
  0.1125000E+03   0.9124722E-02   0.1596537E-01   0.1276119E-01
  0.1135000E+03   0.8939941E-02   0.1567342E-01   0.1251462E-01
  0.1145000E+03   0.8763977E-02   0.1538987E-01   0.1227711E-01
  0.1155000E+03   0.8596376E-02   0.1511444E-01   0.1204828E-01
  0.1165000E+03   0.8436709E-02   0.1484687E-01   0.1182777E-01
  0.1175000E+03   0.8284574E-02   0.1458690E-01   0.1161522E-01
  0.1185000E+03   0.8139589E-02   0.1433427E-01   0.1141030E-01
  0.1195000E+03   0.8001398E-02   0.1408873E-01   0.1121268E-01
  0.1205000E+03   0.7869662E-02   0.1385006E-01   0.1102207E-01
  0.1215000E+03   0.7744063E-02   0.1361803E-01   0.1083817E-01
  0.1225000E+03   0.7624299E-02   0.1339241E-01   0.1066070E-01
  0.1235000E+03   0.7510088E-02   0.1317299E-01   0.1048939E-01
  0.1245000E+03   0.7401160E-02   0.1295957E-01   0.1032400E-01
  0.1255000E+03   0.7297263E-02   0.1275195E-01   0.1016428E-01
  0.1265000E+03   0.7198158E-02   0.1254994E-01   0.1001000E-01
  0.1275000E+03   0.7103619E-02   0.1235335E-01   0.9860935E-02
  0.1285000E+03   0.7013431E-02   0.1216200E-01   0.9716877E-02
  0.1295000E+03   0.6927392E-02   0.1197573E-01   0.9577623E-02
  0.1305000E+03   0.6845310E-02   0.1179436E-01   0.9442982E-02
  0.1315000E+03   0.6767005E-02   0.1161774E-01   0.9312767E-02
  0.1325000E+03   0.6692303E-02   0.1144571E-01   0.9186803E-02
  0.1335000E+03   0.6621043E-02   0.1127812E-01   0.9064922E-02
  0.1345000E+03   0.6553069E-02   0.1111483E-01   0.8946963E-02
  0.1355000E+03   0.6488236E-02   0.1095569E-01   0.8832770E-02
  0.1365000E+03   0.6426403E-02   0.1080059E-01   0.8722198E-02
  0.1375000E+03   0.6367439E-02   0.1064938E-01   0.8615104E-02
  0.1385000E+03   0.6311218E-02   0.1050194E-01   0.8511354E-02
  0.1395000E+03   0.6257621E-02   0.1035815E-01   0.8410819E-02
  0.1405000E+03   0.6206533E-02   0.1021790E-01   0.8313375E-02
  0.1415000E+03   0.6157848E-02   0.1008107E-01   0.8218904E-02
  0.1425000E+03   0.6111461E-02   0.9947553E-02   0.8127292E-02
  0.1435000E+03   0.6067276E-02   0.9817249E-02   0.8038430E-02
  0.1445000E+03   0.6025198E-02   0.9690055E-02   0.7952215E-02
  0.1455000E+03   0.5985138E-02   0.9565874E-02   0.7868547E-02
  0.1465000E+03   0.5947012E-02   0.9444612E-02   0.7787330E-02
  0.1475000E+03   0.5910738E-02   0.9326180E-02   0.7708472E-02
  0.1485000E+03   0.5876239E-02   0.9210489E-02   0.7631886E-02
  0.1495000E+03   0.5843440E-02   0.9097456E-02   0.7557487E-02
  0.1505000E+03   0.5812271E-02   0.8986999E-02   0.7485195E-02
  0.1515000E+03   0.5782664E-02   0.8879040E-02   0.7414930E-02
  0.1525000E+03   0.5754554E-02   0.8773502E-02   0.7346620E-02
  0.1535000E+03   0.5727878E-02   0.8670314E-02   0.7280193E-02
  0.1545000E+03   0.5702578E-02   0.8569404E-02   0.7215579E-02
  0.1555000E+03   0.5678595E-02   0.8470703E-02   0.7152712E-02
  0.1565000E+03   0.5655875E-02   0.8374147E-02   0.7091531E-02
  0.1575000E+03   0.5634366E-02   0.8279671E-02   0.7031972E-02
  0.1585000E+03   0.5614017E-02   0.8187214E-02   0.6973978E-02
  0.1595000E+03   0.5594779E-02   0.8096716E-02   0.6917493E-02
  0.1605000E+03   0.5576606E-02   0.8008121E-02   0.6862461E-02
  0.1615000E+03   0.5559452E-02   0.7921371E-02   0.6808832E-02
  0.1625000E+03   0.5543274E-02   0.7836415E-02   0.6756556E-02
  0.1635000E+03   0.5528031E-02   0.7753200E-02   0.6705583E-02
  0.1645000E+03   0.5513682E-02   0.7671676E-02   0.6655867E-02
  0.1655000E+03   0.5500190E-02   0.7591795E-02   0.6607365E-02
  0.1665000E+03   0.5487515E-02   0.7513509E-02   0.6560032E-02
  0.1675000E+03   0.5475623E-02   0.7436774E-02   0.6513828E-02
  0.1685000E+03   0.5464478E-02   0.7361545E-02   0.6468712E-02
  0.1695000E+03   0.5454048E-02   0.7287781E-02   0.6424647E-02
  0.1705000E+03   0.5444298E-02   0.7215441E-02   0.6381595E-02
  0.1715000E+03   0.5435199E-02   0.7144484E-02   0.6339520E-02
  0.1725000E+03   0.5426720E-02   0.7074873E-02   0.6298389E-02
  0.1735000E+03   0.5418830E-02   0.7006570E-02   0.6258168E-02
  0.1745000E+03   0.5411503E-02   0.6939539E-02   0.6218824E-02
  0.1755000E+03   0.5404710E-02   0.6873747E-02   0.6180329E-02
  0.1765000E+03   0.5398424E-02   0.6809158E-02   0.6142650E-02
  0.1775000E+03   0.5392621E-02   0.6745741E-02   0.6105761E-02
  0.1785000E+03   0.5387274E-02   0.6683464E-02   0.6069633E-02
  0.1795000E+03   0.5382359E-02   0.6622296E-02   0.6034240E-02
  0.1805000E+03   0.5377853E-02   0.6562208E-02   0.5999555E-02
  0.1815000E+03   0.5373733E-02   0.6503172E-02   0.5965555E-02
  0.1825000E+03   0.5369977E-02   0.6445159E-02   0.5932215E-02
  0.1835000E+03   0.5366563E-02   0.6388143E-02   0.5899511E-02
  0.1845000E+03   0.5363471E-02   0.6332098E-02   0.5867423E-02
  0.1855000E+03   0.5360679E-02   0.6276998E-02   0.5835927E-02
  0.1865000E+03   0.5358169E-02   0.6222819E-02   0.5805004E-02
  0.1875000E+03   0.5355921E-02   0.6169537E-02   0.5774632E-02
  0.1885000E+03   0.5353916E-02   0.6117130E-02   0.5744793E-02
  0.1895000E+03   0.5352137E-02   0.6065575E-02   0.5715468E-02
  0.1905000E+03   0.5350566E-02   0.6014851E-02   0.5686639E-02
  0.1915000E+03   0.5349185E-02   0.5964936E-02   0.5658288E-02
  0.1925000E+03   0.5347979E-02   0.5915811E-02   0.5630398E-02
  0.1935000E+03   0.5346931E-02   0.5867455E-02   0.5602953E-02
  0.1945000E+03   0.5346025E-02   0.5819850E-02   0.5575937E-02
  0.1955000E+03   0.5345246E-02   0.5772977E-02   0.5549335E-02
  0.1965000E+03   0.5344580E-02   0.5726818E-02   0.5523132E-02
  0.1975000E+03   0.5344012E-02   0.5681356E-02   0.5497314E-02
  0.1985000E+03   0.5343528E-02   0.5636574E-02   0.5471867E-02
  0.1995000E+03   0.5343114E-02   0.5592455E-02   0.5446777E-02
  0.2005000E+03   0.5342758E-02   0.5548984E-02   0.5422032E-02
  0.2015000E+03   0.5342446E-02   0.5506145E-02   0.5397620E-02
  0.2025000E+03   0.5342166E-02   0.5463922E-02   0.5373528E-02
  0.2035000E+03   0.5341907E-02   0.5422303E-02   0.5349744E-02
  0.2045000E+03   0.5326258E-02   0.5381271E-02   0.5326258E-02
  0.2055000E+03   0.5303059E-02   0.5341401E-02   0.5303059E-02
  0.2065000E+03   0.5280135E-02   0.5341133E-02   0.5280135E-02
  0.2075000E+03   0.5257478E-02   0.5340840E-02   0.5257478E-02
  0.2085000E+03   0.5222761E-02   0.5340513E-02   0.5235076E-02
  0.2095000E+03   0.5184473E-02   0.5340140E-02   0.5212922E-02
  0.2105000E+03   0.5146697E-02   0.5339713E-02   0.5191004E-02
  0.2115000E+03   0.5109421E-02   0.5339221E-02   0.5169316E-02
  0.2125000E+03   0.5072633E-02   0.5338657E-02   0.5147848E-02
  0.2135000E+03   0.5036324E-02   0.5338010E-02   0.5126591E-02
  0.2145000E+03   0.5000483E-02   0.5337274E-02   0.5105539E-02
  0.2155000E+03   0.4965098E-02   0.5336439E-02   0.5084683E-02
  0.2165000E+03   0.4930161E-02   0.5335497E-02   0.5064015E-02
  0.2175000E+03   0.4895661E-02   0.5334442E-02   0.5043529E-02
  0.2185000E+03   0.4861589E-02   0.5333265E-02   0.5023218E-02
  0.2195000E+03   0.4827936E-02   0.5331960E-02   0.5003075E-02
  0.2205000E+03   0.4794693E-02   0.5330519E-02   0.4983094E-02
  0.2215000E+03   0.4761851E-02   0.5328937E-02   0.4963267E-02
  0.2225000E+03   0.4729402E-02   0.5327207E-02   0.4943590E-02
  0.2235000E+03   0.4697337E-02   0.5325324E-02   0.4924057E-02
  0.2245000E+03   0.4665649E-02   0.5323280E-02   0.4904662E-02
  0.2255000E+03   0.4634329E-02   0.5321071E-02   0.4885399E-02
  0.2265000E+03   0.4603371E-02   0.5318692E-02   0.4866263E-02
  0.2275000E+03   0.4572766E-02   0.5316138E-02   0.4847250E-02
  0.2285000E+03   0.4542508E-02   0.5313403E-02   0.4828354E-02
  0.2295000E+03   0.4512589E-02   0.5310484E-02   0.4809572E-02
  0.2305000E+03   0.4483004E-02   0.5307375E-02   0.4790897E-02
  0.2315000E+03   0.4453744E-02   0.5304073E-02   0.4772327E-02
  0.2325000E+03   0.4424804E-02   0.5300575E-02   0.4753857E-02
  0.2335000E+03   0.4396178E-02   0.5296876E-02   0.4735482E-02
  0.2345000E+03   0.4367860E-02   0.5292972E-02   0.4717200E-02
  0.2355000E+03   0.4339842E-02   0.5288862E-02   0.4699006E-02
  0.2365000E+03   0.4312121E-02   0.5284541E-02   0.4680897E-02
  0.2375000E+03   0.4284689E-02   0.5280008E-02   0.4662869E-02
  0.2385000E+03   0.4257542E-02   0.5275258E-02   0.4644920E-02
  0.2395000E+03   0.4230675E-02   0.5270291E-02   0.4627045E-02
  0.2405000E+03   0.4204081E-02   0.5265103E-02   0.4609243E-02
  0.2415000E+03   0.4177756E-02   0.5259693E-02   0.4591510E-02
  0.2425000E+03   0.4151696E-02   0.5254059E-02   0.4573843E-02
  0.2435000E+03   0.4125894E-02   0.5248199E-02   0.4556240E-02
  0.2445000E+03   0.4100347E-02   0.5242112E-02   0.4538698E-02
  0.2455000E+03   0.4075050E-02   0.5235796E-02   0.4521215E-02
  0.2465000E+03   0.4049999E-02   0.5229250E-02   0.4503788E-02
  0.2475000E+03   0.4025188E-02   0.5222474E-02   0.4486415E-02
  0.2485000E+03   0.4000615E-02   0.5215467E-02   0.4469094E-02
  0.2495000E+03   0.3976274E-02   0.5208227E-02   0.4451824E-02
  0.2505000E+03   0.3952162E-02   0.5200755E-02   0.4434601E-02
  0.2515000E+03   0.3928275E-02   0.5193050E-02   0.4417424E-02
  0.2525000E+03   0.3904608E-02   0.5185113E-02   0.4400293E-02
  0.2535000E+03   0.3881159E-02   0.5176941E-02   0.4383203E-02
  0.2545000E+03   0.3857924E-02   0.5168537E-02   0.4366155E-02
  0.2555000E+03   0.3834899E-02   0.5159901E-02   0.4349147E-02
  0.2565000E+03   0.3812080E-02   0.5151032E-02   0.4332177E-02
  0.2575000E+03   0.3789464E-02   0.5141931E-02   0.4315244E-02
  0.2585000E+03   0.3767049E-02   0.5132599E-02   0.4298346E-02
  0.2595000E+03   0.3744830E-02   0.5123036E-02   0.4281483E-02
  0.2605000E+03   0.3722805E-02   0.5113245E-02   0.4264654E-02
  0.2615000E+03   0.3700970E-02   0.5103224E-02   0.4247856E-02
  0.2625000E+03   0.3679322E-02   0.5092976E-02   0.4231089E-02
  0.2635000E+03   0.3657860E-02   0.5082502E-02   0.4214353E-02
  0.2645000E+03   0.3636579E-02   0.5071804E-02   0.4197646E-02
  0.2655000E+03   0.3615477E-02   0.5060882E-02   0.4180968E-02
  0.2665000E+03   0.3594551E-02   0.5049738E-02   0.4164317E-02
  0.2675000E+03   0.3573799E-02   0.5038374E-02   0.4147693E-02
  0.2685000E+03   0.3553217E-02   0.5026792E-02   0.4131096E-02
  0.2695000E+03   0.3532805E-02   0.5014993E-02   0.4114524E-02
  0.2705000E+03   0.3512558E-02   0.5002979E-02   0.4097977E-02
  0.2715000E+03   0.3492475E-02   0.4990753E-02   0.4081455E-02
  0.2725000E+03   0.3472553E-02   0.4978316E-02   0.4064958E-02
  0.2735000E+03   0.3452789E-02   0.4965670E-02   0.4048483E-02
  0.2745000E+03   0.3433183E-02   0.4952819E-02   0.4032032E-02
  0.2755000E+03   0.3413731E-02   0.4939763E-02   0.4015604E-02
  0.2765000E+03   0.3394431E-02   0.4926506E-02   0.3999199E-02
  0.2775000E+03   0.3375282E-02   0.4913050E-02   0.3982816E-02
  0.2785000E+03   0.3356281E-02   0.4899398E-02   0.3966455E-02
  0.2795000E+03   0.3337426E-02   0.4885551E-02   0.3950116E-02
  0.2805000E+03   0.3318715E-02   0.4871513E-02   0.3933799E-02
  0.2815000E+03   0.3300146E-02   0.4857286E-02   0.3917504E-02
  0.2825000E+03   0.3281718E-02   0.4842874E-02   0.3901229E-02
  0.2835000E+03   0.3263428E-02   0.4828278E-02   0.3884977E-02
  0.2845000E+03   0.3245275E-02   0.4813501E-02   0.3868746E-02
  0.2855000E+03   0.3227257E-02   0.4798547E-02   0.3852536E-02
  0.2865000E+03   0.3209372E-02   0.4783419E-02   0.3836347E-02
  0.2875000E+03   0.3191619E-02   0.4768118E-02   0.3820180E-02
  0.2885000E+03   0.3173996E-02   0.4752649E-02   0.3804034E-02
  0.2895000E+03   0.3156501E-02   0.4737015E-02   0.3787910E-02
  0.2905000E+03   0.3139133E-02   0.4721217E-02   0.3771808E-02
  0.2915000E+03   0.3121890E-02   0.4705260E-02   0.3755727E-02
  0.2925000E+03   0.3104771E-02   0.4689147E-02   0.3739668E-02
  0.2935000E+03   0.3087774E-02   0.4672880E-02   0.3723632E-02
  0.2945000E+03   0.3070898E-02   0.4656463E-02   0.3707617E-02
  0.2955000E+03   0.3054141E-02   0.4639899E-02   0.3691626E-02
  0.2965000E+03   0.3037502E-02   0.4623191E-02   0.3675656E-02
  0.2975000E+03   0.3020980E-02   0.4606342E-02   0.3659710E-02
  0.2985000E+03   0.3004573E-02   0.4589355E-02   0.3643787E-02
  0.2995000E+03   0.2988280E-02   0.4572235E-02   0.3627887E-02
  0.3005000E+03   0.2972099E-02   0.4554983E-02   0.3612012E-02
  0.3015000E+03   0.2956030E-02   0.4537603E-02   0.3596160E-02
  0.3025000E+03   0.2940072E-02   0.4520099E-02   0.3580332E-02
  0.3035000E+03   0.2924222E-02   0.4502474E-02   0.3564529E-02
  0.3045000E+03   0.2908480E-02   0.4484730E-02   0.3548751E-02
  0.3055000E+03   0.2892845E-02   0.4466872E-02   0.3532998E-02
  0.3065000E+03   0.2877315E-02   0.4448902E-02   0.3517271E-02
  0.3075000E+03   0.2861890E-02   0.4430823E-02   0.3501570E-02
  0.3085000E+03   0.2846568E-02   0.4412640E-02   0.3485895E-02
  0.3095000E+03   0.2831348E-02   0.4394354E-02   0.3470247E-02
  0.3105000E+03   0.2816230E-02   0.4375970E-02   0.3454626E-02
