             #w        R(w)_min        R(w)_max        R(w)_avg
  0.5000000E+00  -0.6963872E-07  -0.1697415E-09  -0.3184584E-08
  0.1500000E+01  -0.7421860E-07  -0.1809046E-09  -0.3512027E-08
  0.2500000E+01  -0.7848841E-07  -0.1931601E-09  -0.3863494E-08
  0.3500000E+01  -0.8250469E-07  -0.2065486E-09  -0.4240551E-08
  0.4500000E+01  -0.8632710E-07  -0.2211235E-09  -0.4644840E-08
  0.5500000E+01  -0.9001434E-07  -0.2369509E-09  -0.5078070E-08
  0.6500000E+01  -0.9362151E-07  -0.2541098E-09  -0.5542012E-08
  0.7500000E+01  -0.9719868E-07  -0.2726933E-09  -0.6038492E-08
  0.8500000E+01  -0.1007902E-06  -0.2928087E-09  -0.6569389E-08
  0.9500000E+01  -0.1044344E-06  -0.3145786E-09  -0.7136622E-08
  0.1050000E+02  -0.1081643E-06  -0.3381419E-09  -0.7742149E-08
  0.1150000E+02  -0.1120071E-06  -0.3636545E-09  -0.8387961E-08
  0.1250000E+02  -0.1159857E-06  -0.3912909E-09  -0.9076072E-08
  0.1350000E+02  -0.1201181E-06  -0.4212449E-09  -0.9808516E-08
  0.1450000E+02  -0.1244190E-06  -0.4537312E-09  -0.1058734E-07
  0.1550000E+02  -0.1288991E-06  -0.4889868E-09  -0.1141460E-07
  0.1650000E+02  -0.1335665E-06  -0.5272724E-09  -0.1229235E-07
  0.1750000E+02  -0.1384264E-06  -0.5688740E-09  -0.1322265E-07
  0.1850000E+02  -0.1434816E-06  -0.6141048E-09  -0.1420753E-07
  0.1950000E+02  -0.1487329E-06  -0.6633066E-09  -0.1524902E-07
  0.2050000E+02  -0.1541794E-06  -0.7168520E-09  -0.1634912E-07
  0.2150000E+02  -0.1598185E-06  -0.7751465E-09  -0.1750982E-07
  0.2250000E+02  -0.1656461E-06  -0.8386301E-09  -0.1873306E-07
  0.2350000E+02  -0.1716572E-06  -0.9077796E-09  -0.2002076E-07
  0.2450000E+02  -0.1778456E-06  -0.9831109E-09  -0.2137480E-07
  0.2550000E+02  -0.1842046E-06  -0.1065181E-08  -0.2279702E-07
  0.2650000E+02  -0.1907265E-06  -0.1154590E-08  -0.2428920E-07
  0.2750000E+02  -0.1974035E-06  -0.1251985E-08  -0.2585308E-07
  0.2850000E+02  -0.2042273E-06  -0.1358057E-08  -0.2749036E-07
  0.2950000E+02  -0.2111894E-06  -0.1473552E-08  -0.2920268E-07
  0.3050000E+02  -0.2182814E-06  -0.1599263E-08  -0.3099161E-07
  0.3150000E+02  -0.2254949E-06  -0.1736039E-08  -0.3285867E-07
  0.3250000E+02  -0.2328217E-06  -0.1884785E-08  -0.3480534E-07
  0.3350000E+02  -0.2402539E-06  -0.2046460E-08  -0.3683302E-07
  0.3450000E+02  -0.2477840E-06  -0.2222086E-08  -0.3894304E-07
  0.3550000E+02  -0.2554048E-06  -0.2412739E-08  -0.4113669E-07
  0.3650000E+02  -0.2631098E-06  -0.2619560E-08  -0.4341518E-07
  0.3750000E+02  -0.2708929E-06  -0.2843749E-08  -0.4577966E-07
  0.3850000E+02  -0.2787485E-06  -0.3086567E-08  -0.4823122E-07
  0.3950000E+02  -0.2866716E-06  -0.3349338E-08  -0.5077087E-07
  0.4050000E+02  -0.2946581E-06  -0.3633446E-08  -0.5339956E-07
  0.4150000E+02  -0.3027040E-06  -0.3940335E-08  -0.5611818E-07
  0.4250000E+02  -0.3108061E-06  -0.4271508E-08  -0.5892755E-07
  0.4350000E+02  -0.3189618E-06  -0.4628529E-08  -0.6182842E-07
  0.4450000E+02  -0.3271689E-06  -0.5013013E-08  -0.6482148E-07
  0.4550000E+02  -0.3354257E-06  -0.5426633E-08  -0.6790733E-07
  0.4650000E+02  -0.3437312E-06  -0.5871111E-08  -0.7108652E-07
  0.4750000E+02  -0.3520843E-06  -0.6348217E-08  -0.7435954E-07
  0.4850000E+02  -0.3604848E-06  -0.6859767E-08  -0.7772680E-07
  0.4950000E+02  -0.3689325E-06  -0.7407617E-08  -0.8118863E-07
  0.5050000E+02  -0.3774275E-06  -0.7993661E-08  -0.8474532E-07
  0.5150000E+02  -0.3859702E-06  -0.8619826E-08  -0.8839706E-07
  0.5250000E+02  -0.3945612E-06  -0.9288066E-08  -0.9214400E-07
  0.5350000E+02  -0.4032012E-06  -0.1000036E-07  -0.9598620E-07
  0.5450000E+02  -0.4118911E-06  -0.1075870E-07  -0.9992366E-07
  0.5550000E+02  -0.4206315E-06  -0.1156511E-07  -0.1039563E-06
  0.5650000E+02  -0.4294236E-06  -0.1242159E-07  -0.1080840E-06
  0.5750000E+02  -0.4382680E-06  -0.1333018E-07  -0.1123066E-06
  0.5850000E+02  -0.4471657E-06  -0.1429288E-07  -0.1166237E-06
  0.5950000E+02  -0.4561175E-06  -0.1531172E-07  -0.1210351E-06
  0.6050000E+02  -0.4651238E-06  -0.1638869E-07  -0.1255403E-06
  0.6150000E+02  -0.4741854E-06  -0.1752577E-07  -0.1301389E-06
  0.6250000E+02  -0.4833026E-06  -0.1872491E-07  -0.1348302E-06
  0.6350000E+02  -0.4924757E-06  -0.1998806E-07  -0.1396138E-06
  0.6450000E+02  -0.5017046E-06  -0.2131709E-07  -0.1444889E-06
  0.6550000E+02  -0.5109894E-06  -0.2271388E-07  -0.1494548E-06
  0.6650000E+02  -0.5203298E-06  -0.2418024E-07  -0.1545106E-06
  0.6750000E+02  -0.5297251E-06  -0.2571793E-07  -0.1596556E-06
  0.6850000E+02  -0.5391749E-06  -0.2732868E-07  -0.1648889E-06
  0.6950000E+02  -0.5486782E-06  -0.2901416E-07  -0.1702093E-06
  0.7050000E+02  -0.5582339E-06  -0.3077597E-07  -0.1756160E-06
  0.7150000E+02  -0.5678409E-06  -0.3261567E-07  -0.1811077E-06
  0.7250000E+02  -0.5774976E-06  -0.3453474E-07  -0.1866834E-06
  0.7350000E+02  -0.5872024E-06  -0.3653461E-07  -0.1923418E-06
  0.7450000E+02  -0.5969536E-06  -0.3861663E-07  -0.1980817E-06
  0.7550000E+02  -0.6067492E-06  -0.4078208E-07  -0.2039017E-06
  0.7650000E+02  -0.6165871E-06  -0.4303219E-07  -0.2098006E-06
  0.7750000E+02  -0.6264652E-06  -0.4536810E-07  -0.2157769E-06
  0.7850000E+02  -0.6363809E-06  -0.4779086E-07  -0.2218291E-06
  0.7950000E+02  -0.6463318E-06  -0.5030149E-07  -0.2279559E-06
  0.8050000E+02  -0.6563155E-06  -0.5290089E-07  -0.2341556E-06
  0.8150000E+02  -0.6663291E-06  -0.5558991E-07  -0.2404267E-06
  0.8250000E+02  -0.6763699E-06  -0.5836932E-07  -0.2467675E-06
  0.8350000E+02  -0.6864352E-06  -0.6123981E-07  -0.2531766E-06
  0.8450000E+02  -0.6965220E-06  -0.6420198E-07  -0.2596521E-06
  0.8550000E+02  -0.7066276E-06  -0.6725638E-07  -0.2661924E-06
  0.8650000E+02  -0.7167489E-06  -0.7040346E-07  -0.2727958E-06
  0.8750000E+02  -0.7268831E-06  -0.7364361E-07  -0.2794606E-06
  0.8850000E+02  -0.7370272E-06  -0.7697713E-07  -0.2861849E-06
  0.8950000E+02  -0.7471784E-06  -0.8040426E-07  -0.2929670E-06
  0.9050000E+02  -0.7573338E-06  -0.8392515E-07  -0.2998051E-06
  0.9150000E+02  -0.7674905E-06  -0.8753989E-07  -0.3066974E-06
  0.9250000E+02  -0.7776458E-06  -0.9124848E-07  -0.3136421E-06
  0.9350000E+02  -0.7877969E-06  -0.9505085E-07  -0.3206373E-06
  0.9450000E+02  -0.7979412E-06  -0.9894688E-07  -0.3276812E-06
  0.9550000E+02  -0.8080761E-06  -0.1029363E-06  -0.3347719E-06
  0.9650000E+02  -0.8181990E-06  -0.1070190E-06  -0.3419076E-06
  0.9750000E+02  -0.8283076E-06  -0.1111944E-06  -0.3490864E-06
  0.9850000E+02  -0.8383995E-06  -0.1154622E-06  -0.3563065E-06
  0.9950000E+02  -0.8484726E-06  -0.1198220E-06  -0.3635660E-06
  0.1005000E+03  -0.8585246E-06  -0.1242731E-06  -0.3708631E-06
  0.1015000E+03  -0.8685535E-06  -0.1288149E-06  -0.3781960E-06
  0.1025000E+03  -0.8785575E-06  -0.1334467E-06  -0.3855627E-06
  0.1035000E+03  -0.8885347E-06  -0.1381679E-06  -0.3929616E-06
  0.1045000E+03  -0.8984835E-06  -0.1429775E-06  -0.4003907E-06
  0.1055000E+03  -0.9084022E-06  -0.1478747E-06  -0.4078483E-06
  0.1065000E+03  -0.9182894E-06  -0.1528586E-06  -0.4153326E-06
  0.1075000E+03  -0.9281437E-06  -0.1579282E-06  -0.4228418E-06
  0.1085000E+03  -0.9379639E-06  -0.1630823E-06  -0.4303742E-06
  0.1095000E+03  -0.9477489E-06  -0.1683200E-06  -0.4379280E-06
  0.1105000E+03  -0.9574975E-06  -0.1736400E-06  -0.4455016E-06
  0.1115000E+03  -0.9672089E-06  -0.1790411E-06  -0.4530931E-06
  0.1125000E+03  -0.9768822E-06  -0.1845221E-06  -0.4607010E-06
  0.1135000E+03  -0.9865168E-06  -0.1900816E-06  -0.4683237E-06
  0.1145000E+03  -0.9961118E-06  -0.1957182E-06  -0.4759593E-06
  0.1155000E+03  -0.1005667E-05  -0.2014305E-06  -0.4836065E-06
  0.1165000E+03  -0.1015181E-05  -0.2072170E-06  -0.4912635E-06
  0.1175000E+03  -0.1024655E-05  -0.2130763E-06  -0.4989288E-06
  0.1185000E+03  -0.1034088E-05  -0.2190068E-06  -0.5066009E-06
  0.1195000E+03  -0.1043479E-05  -0.2250068E-06  -0.5142783E-06
  0.1205000E+03  -0.1052828E-05  -0.2310747E-06  -0.5219594E-06
  0.1215000E+03  -0.1062136E-05  -0.2372089E-06  -0.5296429E-06
  0.1225000E+03  -0.1071402E-05  -0.2434076E-06  -0.5373274E-06
  0.1235000E+03  -0.1080626E-05  -0.2496691E-06  -0.5450113E-06
  0.1245000E+03  -0.1089809E-05  -0.2559916E-06  -0.5526933E-06
  0.1255000E+03  -0.1098949E-05  -0.2623733E-06  -0.5603722E-06
  0.1265000E+03  -0.1108048E-05  -0.2688124E-06  -0.5680465E-06
  0.1275000E+03  -0.1117106E-05  -0.2753070E-06  -0.5757150E-06
  0.1285000E+03  -0.1126123E-05  -0.2818552E-06  -0.5833765E-06
  0.1295000E+03  -0.1135099E-05  -0.2884551E-06  -0.5910296E-06
  0.1305000E+03  -0.1144033E-05  -0.2951048E-06  -0.5986732E-06
  0.1315000E+03  -0.1152928E-05  -0.3018023E-06  -0.6063061E-06
  0.1325000E+03  -0.1161782E-05  -0.3085458E-06  -0.6139272E-06
  0.1335000E+03  -0.1170596E-05  -0.3153331E-06  -0.6215353E-06
  0.1345000E+03  -0.1179371E-05  -0.3221624E-06  -0.6291294E-06
  0.1355000E+03  -0.1188106E-05  -0.3290316E-06  -0.6367084E-06
  0.1365000E+03  -0.1196802E-05  -0.3359389E-06  -0.6442712E-06
  0.1375000E+03  -0.1205460E-05  -0.3428820E-06  -0.6518168E-06
  0.1385000E+03  -0.1214078E-05  -0.3498591E-06  -0.6593443E-06
  0.1395000E+03  -0.1222659E-05  -0.3568682E-06  -0.6668526E-06
  0.1405000E+03  -0.1231202E-05  -0.3639073E-06  -0.6743409E-06
  0.1415000E+03  -0.1239707E-05  -0.3709743E-06  -0.6818083E-06
  0.1425000E+03  -0.1248175E-05  -0.3780673E-06  -0.6892539E-06
  0.1435000E+03  -0.1256606E-05  -0.3851844E-06  -0.6966768E-06
  0.1445000E+03  -0.1265000E-05  -0.3923234E-06  -0.7040762E-06
  0.1455000E+03  -0.1273357E-05  -0.3994826E-06  -0.7114513E-06
  0.1465000E+03  -0.1281677E-05  -0.4066598E-06  -0.7188013E-06
  0.1475000E+03  -0.1289962E-05  -0.4138533E-06  -0.7261255E-06
  0.1485000E+03  -0.1298210E-05  -0.4210611E-06  -0.7334232E-06
  0.1495000E+03  -0.1306422E-05  -0.4282813E-06  -0.7406936E-06
  0.1505000E+03  -0.1314599E-05  -0.4355120E-06  -0.7479361E-06
  0.1515000E+03  -0.1322740E-05  -0.4427514E-06  -0.7551500E-06
  0.1525000E+03  -0.1330845E-05  -0.4499977E-06  -0.7623347E-06
  0.1535000E+03  -0.1338915E-05  -0.4572489E-06  -0.7694895E-06
  0.1545000E+03  -0.1346950E-05  -0.4645035E-06  -0.7766139E-06
  0.1555000E+03  -0.1354949E-05  -0.4717595E-06  -0.7837074E-06
  0.1565000E+03  -0.1362912E-05  -0.4790153E-06  -0.7907694E-06
  0.1575000E+03  -0.1370841E-05  -0.4862692E-06  -0.7977993E-06
  0.1585000E+03  -0.1378734E-05  -0.4935195E-06  -0.8047966E-06
  0.1595000E+03  -0.1386592E-05  -0.5007646E-06  -0.8117610E-06
  0.1605000E+03  -0.1394415E-05  -0.5080028E-06  -0.8186918E-06
  0.1615000E+03  -0.1402202E-05  -0.5152326E-06  -0.8255888E-06
  0.1625000E+03  -0.1409954E-05  -0.5224524E-06  -0.8324514E-06
  0.1635000E+03  -0.1417671E-05  -0.5296607E-06  -0.8392793E-06
  0.1645000E+03  -0.1425352E-05  -0.5368561E-06  -0.8460720E-06
  0.1655000E+03  -0.1432998E-05  -0.5440370E-06  -0.8528293E-06
  0.1665000E+03  -0.1440608E-05  -0.5512021E-06  -0.8595507E-06
  0.1675000E+03  -0.1448182E-05  -0.5583500E-06  -0.8662361E-06
  0.1685000E+03  -0.1455721E-05  -0.5654794E-06  -0.8728849E-06
  0.1695000E+03  -0.1463223E-05  -0.5725889E-06  -0.8794970E-06
  0.1705000E+03  -0.1470690E-05  -0.5796772E-06  -0.8860721E-06
  0.1715000E+03  -0.1478121E-05  -0.5867432E-06  -0.8926099E-06
  0.1725000E+03  -0.1485515E-05  -0.5937856E-06  -0.8991103E-06
  0.1735000E+03  -0.1492874E-05  -0.6008033E-06  -0.9055728E-06
  0.1745000E+03  -0.1500196E-05  -0.6077950E-06  -0.9119975E-06
  0.1755000E+03  -0.1507481E-05  -0.6147598E-06  -0.9183840E-06
  0.1765000E+03  -0.1514730E-05  -0.6216965E-06  -0.9247321E-06
  0.1775000E+03  -0.1521942E-05  -0.6286041E-06  -0.9310418E-06
  0.1785000E+03  -0.1529118E-05  -0.6354816E-06  -0.9373129E-06
  0.1795000E+03  -0.1536256E-05  -0.6423281E-06  -0.9435452E-06
  0.1805000E+03  -0.1543358E-05  -0.6491426E-06  -0.9497387E-06
  0.1815000E+03  -0.1550423E-05  -0.6559242E-06  -0.9558932E-06
  0.1825000E+03  -0.1557451E-05  -0.6626720E-06  -0.9620086E-06
  0.1835000E+03  -0.1564441E-05  -0.6693853E-06  -0.9680848E-06
  0.1845000E+03  -0.1571395E-05  -0.6760632E-06  -0.9741218E-06
  0.1855000E+03  -0.1578311E-05  -0.6827050E-06  -0.9801196E-06
  0.1865000E+03  -0.1585190E-05  -0.6893099E-06  -0.9860780E-06
  0.1875000E+03  -0.1592032E-05  -0.6958771E-06  -0.9919971E-06
  0.1885000E+03  -0.1598837E-05  -0.7024062E-06  -0.9978768E-06
  0.1895000E+03  -0.1605604E-05  -0.7088962E-06  -0.1003717E-05
  0.1905000E+03  -0.1612334E-05  -0.7153468E-06  -0.1009518E-05
  0.1915000E+03  -0.1619027E-05  -0.7217572E-06  -0.1015280E-05
  0.1925000E+03  -0.1625683E-05  -0.7281269E-06  -0.1021002E-05
  0.1935000E+03  -0.1632302E-05  -0.7344555E-06  -0.1026685E-05
  0.1945000E+03  -0.1638883E-05  -0.7407422E-06  -0.1032329E-05
  0.1955000E+03  -0.1645428E-05  -0.7469868E-06  -0.1037933E-05
  0.1965000E+03  -0.1651935E-05  -0.7531887E-06  -0.1043499E-05
  0.1975000E+03  -0.1658406E-05  -0.7593474E-06  -0.1049025E-05
  0.1985000E+03  -0.1664840E-05  -0.7654627E-06  -0.1054512E-05
  0.1995000E+03  -0.1671237E-05  -0.7715341E-06  -0.1059961E-05
  0.2005000E+03  -0.1677598E-05  -0.7775612E-06  -0.1065370E-05
  0.2015000E+03  -0.1683922E-05  -0.7835438E-06  -0.1070741E-05
  0.2025000E+03  -0.1690211E-05  -0.7894814E-06  -0.1076074E-05
  0.2035000E+03  -0.1696463E-05  -0.7953739E-06  -0.1081368E-05
  0.2045000E+03  -0.1702679E-05  -0.8012209E-06  -0.1086623E-05
  0.2055000E+03  -0.1708860E-05  -0.8070222E-06  -0.1091840E-05
  0.2065000E+03  -0.1715005E-05  -0.8127775E-06  -0.1097020E-05
  0.2075000E+03  -0.1721115E-05  -0.8184867E-06  -0.1102161E-05
  0.2085000E+03  -0.1727190E-05  -0.8241495E-06  -0.1107265E-05
  0.2095000E+03  -0.1733230E-05  -0.8297659E-06  -0.1112331E-05
  0.2105000E+03  -0.1739235E-05  -0.8353355E-06  -0.1117359E-05
  0.2115000E+03  -0.1745206E-05  -0.8408584E-06  -0.1122350E-05
  0.2125000E+03  -0.1751143E-05  -0.8463343E-06  -0.1127305E-05
  0.2135000E+03  -0.1757046E-05  -0.8517632E-06  -0.1132222E-05
  0.2145000E+03  -0.1762915E-05  -0.8571450E-06  -0.1137102E-05
  0.2155000E+03  -0.1768752E-05  -0.8624796E-06  -0.1141947E-05
  0.2165000E+03  -0.1774555E-05  -0.8677669E-06  -0.1146754E-05
  0.2175000E+03  -0.1780325E-05  -0.8730070E-06  -0.1151526E-05
  0.2185000E+03  -0.1786063E-05  -0.8781998E-06  -0.1156261E-05
  0.2195000E+03  -0.1791769E-05  -0.8833452E-06  -0.1160961E-05
  0.2205000E+03  -0.1797443E-05  -0.8884433E-06  -0.1165625E-05
  0.2215000E+03  -0.1803086E-05  -0.8934941E-06  -0.1170254E-05
  0.2225000E+03  -0.1808697E-05  -0.8984977E-06  -0.1174848E-05
  0.2235000E+03  -0.1814278E-05  -0.9034539E-06  -0.1179407E-05
  0.2245000E+03  -0.1819828E-05  -0.9083630E-06  -0.1183932E-05
  0.2255000E+03  -0.1825348E-05  -0.9132250E-06  -0.1188422E-05
  0.2265000E+03  -0.1830838E-05  -0.9180399E-06  -0.1192877E-05
  0.2275000E+03  -0.1836298E-05  -0.9228078E-06  -0.1197299E-05
  0.2285000E+03  -0.1841730E-05  -0.9275288E-06  -0.1201687E-05
  0.2295000E+03  -0.1847132E-05  -0.9322031E-06  -0.1206042E-05
  0.2305000E+03  -0.1852506E-05  -0.9368307E-06  -0.1210363E-05
  0.2315000E+03  -0.1857852E-05  -0.9414118E-06  -0.1214651E-05
  0.2325000E+03  -0.1863170E-05  -0.9459465E-06  -0.1218906E-05
  0.2335000E+03  -0.1868460E-05  -0.9504349E-06  -0.1223129E-05
  0.2345000E+03  -0.1873723E-05  -0.9548772E-06  -0.1227320E-05
  0.2355000E+03  -0.1878960E-05  -0.9592735E-06  -0.1231478E-05
  0.2365000E+03  -0.1884170E-05  -0.9636241E-06  -0.1235605E-05
  0.2375000E+03  -0.1889353E-05  -0.9679291E-06  -0.1239700E-05
  0.2385000E+03  -0.1894511E-05  -0.9721886E-06  -0.1243764E-05
  0.2395000E+03  -0.1899644E-05  -0.9764030E-06  -0.1247796E-05
  0.2405000E+03  -0.1904751E-05  -0.9805722E-06  -0.1251798E-05
  0.2415000E+03  -0.1909834E-05  -0.9846967E-06  -0.1255769E-05
  0.2425000E+03  -0.1914892E-05  -0.9887765E-06  -0.1259710E-05
  0.2435000E+03  -0.1919925E-05  -0.9928120E-06  -0.1263621E-05
  0.2445000E+03  -0.1924935E-05  -0.9968032E-06  -0.1267502E-05
  0.2455000E+03  -0.1929922E-05  -0.1000751E-05  -0.1271353E-05
  0.2465000E+03  -0.1934885E-05  -0.1004654E-05  -0.1275175E-05
  0.2475000E+03  -0.1939825E-05  -0.1008514E-05  -0.1278968E-05
  0.2485000E+03  -0.1944743E-05  -0.1012331E-05  -0.1282732E-05
  0.2495000E+03  -0.1949638E-05  -0.1016105E-05  -0.1286467E-05
  0.2505000E+03  -0.1954512E-05  -0.1019836E-05  -0.1290174E-05
  0.2515000E+03  -0.1959363E-05  -0.1023525E-05  -0.1293853E-05
  0.2525000E+03  -0.1964193E-05  -0.1027171E-05  -0.1297504E-05
  0.2535000E+03  -0.1969002E-05  -0.1030776E-05  -0.1301128E-05
  0.2545000E+03  -0.1973790E-05  -0.1034339E-05  -0.1304724E-05
  0.2555000E+03  -0.1978557E-05  -0.1037860E-05  -0.1308293E-05
  0.2565000E+03  -0.1983304E-05  -0.1041341E-05  -0.1311835E-05
  0.2575000E+03  -0.1988031E-05  -0.1044780E-05  -0.1315350E-05
  0.2585000E+03  -0.1992738E-05  -0.1048179E-05  -0.1318839E-05
  0.2595000E+03  -0.1997425E-05  -0.1051538E-05  -0.1322302E-05
  0.2605000E+03  -0.2002093E-05  -0.1054857E-05  -0.1325739E-05
  0.2615000E+03  -0.2006742E-05  -0.1058136E-05  -0.1329150E-05
  0.2625000E+03  -0.2011372E-05  -0.1061376E-05  -0.1332536E-05
  0.2635000E+03  -0.2015983E-05  -0.1064576E-05  -0.1335896E-05
  0.2645000E+03  -0.2020576E-05  -0.1067738E-05  -0.1339232E-05
  0.2655000E+03  -0.2025150E-05  -0.1070862E-05  -0.1342543E-05
  0.2665000E+03  -0.2029707E-05  -0.1073947E-05  -0.1345829E-05
  0.2675000E+03  -0.2034245E-05  -0.1076995E-05  -0.1349091E-05
  0.2685000E+03  -0.2038766E-05  -0.1080005E-05  -0.1352329E-05
  0.2695000E+03  -0.2043270E-05  -0.1082978E-05  -0.1355543E-05
  0.2705000E+03  -0.2047756E-05  -0.1085914E-05  -0.1358734E-05
  0.2715000E+03  -0.2052225E-05  -0.1088813E-05  -0.1361901E-05
  0.2725000E+03  -0.2056678E-05  -0.1091676E-05  -0.1365045E-05
  0.2735000E+03  -0.2061113E-05  -0.1094503E-05  -0.1368167E-05
  0.2745000E+03  -0.2065532E-05  -0.1097294E-05  -0.1371265E-05
  0.2755000E+03  -0.2069935E-05  -0.1100051E-05  -0.1374341E-05
  0.2765000E+03  -0.2074322E-05  -0.1102772E-05  -0.1377395E-05
  0.2775000E+03  -0.2078692E-05  -0.1105458E-05  -0.1380427E-05
  0.2785000E+03  -0.2083046E-05  -0.1108110E-05  -0.1383437E-05
  0.2795000E+03  -0.2087385E-05  -0.1110728E-05  -0.1386425E-05
  0.2805000E+03  -0.2091708E-05  -0.1113313E-05  -0.1389392E-05
  0.2815000E+03  -0.2096016E-05  -0.1115864E-05  -0.1392338E-05
  0.2825000E+03  -0.2100308E-05  -0.1118382E-05  -0.1395263E-05
  0.2835000E+03  -0.2104585E-05  -0.1120867E-05  -0.1398167E-05
  0.2845000E+03  -0.2108847E-05  -0.1123320E-05  -0.1401050E-05
  0.2855000E+03  -0.2113094E-05  -0.1125741E-05  -0.1403913E-05
  0.2865000E+03  -0.2117326E-05  -0.1128130E-05  -0.1406756E-05
  0.2875000E+03  -0.2121543E-05  -0.1130487E-05  -0.1409579E-05
  0.2885000E+03  -0.2125746E-05  -0.1132813E-05  -0.1412383E-05
  0.2895000E+03  -0.2129934E-05  -0.1135109E-05  -0.1415167E-05
  0.2905000E+03  -0.2134108E-05  -0.1137374E-05  -0.1417931E-05
  0.2915000E+03  -0.2138267E-05  -0.1139609E-05  -0.1420676E-05
  0.2925000E+03  -0.2142412E-05  -0.1141814E-05  -0.1423403E-05
  0.2935000E+03  -0.2146543E-05  -0.1143990E-05  -0.1426110E-05
  0.2945000E+03  -0.2150660E-05  -0.1146136E-05  -0.1428799E-05
  0.2955000E+03  -0.2154763E-05  -0.1148254E-05  -0.1431470E-05
  0.2965000E+03  -0.2158853E-05  -0.1150343E-05  -0.1434122E-05
  0.2975000E+03  -0.2162928E-05  -0.1152403E-05  -0.1436757E-05
  0.2985000E+03  -0.2166990E-05  -0.1154436E-05  -0.1439374E-05
  0.2995000E+03  -0.2171038E-05  -0.1156441E-05  -0.1441973E-05
  0.3005000E+03  -0.2175073E-05  -0.1158419E-05  -0.1444554E-05
  0.3015000E+03  -0.2179094E-05  -0.1160369E-05  -0.1447118E-05
  0.3025000E+03  -0.2183102E-05  -0.1162293E-05  -0.1449666E-05
  0.3035000E+03  -0.2187097E-05  -0.1164191E-05  -0.1452196E-05
  0.3045000E+03  -0.2191079E-05  -0.1166062E-05  -0.1454709E-05
  0.3055000E+03  -0.2195047E-05  -0.1167908E-05  -0.1457206E-05
  0.3065000E+03  -0.2199002E-05  -0.1169728E-05  -0.1459687E-05
  0.3075000E+03  -0.2202945E-05  -0.1171523E-05  -0.1462151E-05
  0.3085000E+03  -0.2206874E-05  -0.1173293E-05  -0.1464599E-05
  0.3095000E+03  -0.2210791E-05  -0.1175039E-05  -0.1467032E-05
  0.3105000E+03  -0.2214695E-05  -0.1176760E-05  -0.1469448E-05
