             #w        R(w)_min        R(w)_max        R(w)_avg
  0.5000000E+00   0.4071287E-03   0.2754653E-02   0.1271119E-02
  0.1500000E+01   0.5317531E-03   0.3115054E-02   0.1522231E-02
  0.2500000E+01   0.6847550E-03   0.3501433E-02   0.1806347E-02
  0.3500000E+01   0.8699456E-03   0.3913042E-02   0.2124816E-02
  0.4500000E+01   0.1091068E-02   0.4348850E-02   0.2478599E-02
  0.5500000E+01   0.1351679E-02   0.4807550E-02   0.2868230E-02
  0.6500000E+01   0.1655020E-02   0.5287574E-02   0.3293788E-02
  0.7500000E+01   0.2003901E-02   0.5787121E-02   0.3754873E-02
  0.8500000E+01   0.2400583E-02   0.6304174E-02   0.4250603E-02
  0.9500000E+01   0.2846678E-02   0.6836533E-02   0.4779618E-02
  0.1050000E+02   0.3343065E-02   0.7381843E-02   0.5340094E-02
  0.1150000E+02   0.3889831E-02   0.7937624E-02   0.5929770E-02
  0.1250000E+02   0.4486227E-02   0.8501306E-02   0.6545984E-02
  0.1350000E+02   0.5130660E-02   0.9070258E-02   0.7185714E-02
  0.1450000E+02   0.5820702E-02   0.9641822E-02   0.7845629E-02
  0.1550000E+02   0.6553124E-02   0.1021334E-01   0.8522146E-02
  0.1650000E+02   0.7323957E-02   0.1078219E-01   0.9211479E-02
  0.1750000E+02   0.8128569E-02   0.1134581E-01   0.9909707E-02
  0.1850000E+02   0.8961753E-02   0.1190171E-01   0.1061283E-01
  0.1950000E+02   0.9817833E-02   0.1244751E-01   0.1131681E-01
  0.2050000E+02   0.1069078E-01   0.1298095E-01   0.1201767E-01
  0.2150000E+02   0.1157433E-01   0.1349992E-01   0.1271149E-01
  0.2250000E+02   0.1246208E-01   0.1400245E-01   0.1339449E-01
  0.2350000E+02   0.1334763E-01   0.1448675E-01   0.1406306E-01
  0.2450000E+02   0.1422468E-01   0.1495118E-01   0.1471380E-01
  0.2550000E+02   0.1508711E-01   0.1539429E-01   0.1534354E-01
  0.2650000E+02   0.1581481E-01   0.1594939E-01   0.1594939E-01
  0.2750000E+02   0.1621165E-01   0.1674519E-01   0.1652871E-01
  0.2850000E+02   0.1658389E-01   0.1753033E-01   0.1707918E-01
  0.2950000E+02   0.1693080E-01   0.1827996E-01   0.1759878E-01
  0.3050000E+02   0.1725182E-01   0.1899001E-01   0.1808579E-01
  0.3150000E+02   0.1754652E-01   0.1965697E-01   0.1853879E-01
  0.3250000E+02   0.1781469E-01   0.2027788E-01   0.1895667E-01
  0.3350000E+02   0.1805621E-01   0.2085031E-01   0.1933860E-01
  0.3450000E+02   0.1827112E-01   0.2137240E-01   0.1968404E-01
  0.3550000E+02   0.1845961E-01   0.2184280E-01   0.1999269E-01
  0.3650000E+02   0.1862196E-01   0.2226069E-01   0.2026452E-01
  0.3750000E+02   0.1875857E-01   0.2262570E-01   0.2049973E-01
  0.3850000E+02   0.1886995E-01   0.2293792E-01   0.2069872E-01
  0.3950000E+02   0.1895668E-01   0.2319786E-01   0.2086208E-01
  0.4050000E+02   0.1901942E-01   0.2340637E-01   0.2099059E-01
  0.4150000E+02   0.1905892E-01   0.2356466E-01   0.2108517E-01
  0.4250000E+02   0.1907597E-01   0.2367420E-01   0.2114687E-01
  0.4350000E+02   0.1907140E-01   0.2373672E-01   0.2117686E-01
  0.4450000E+02   0.1904611E-01   0.2375416E-01   0.2117641E-01
  0.4550000E+02   0.1900100E-01   0.2372864E-01   0.2114685E-01
  0.4650000E+02   0.1893703E-01   0.2366239E-01   0.2108960E-01
  0.4750000E+02   0.1885514E-01   0.2355776E-01   0.2100609E-01
  0.4850000E+02   0.1875630E-01   0.2341717E-01   0.2089783E-01
  0.4950000E+02   0.1864149E-01   0.2324307E-01   0.2076630E-01
  0.5050000E+02   0.1851169E-01   0.2303794E-01   0.2061302E-01
  0.5150000E+02   0.1836784E-01   0.2280424E-01   0.2043950E-01
  0.5250000E+02   0.1821091E-01   0.2254441E-01   0.2024723E-01
  0.5350000E+02   0.1804185E-01   0.2226086E-01   0.2003769E-01
  0.5450000E+02   0.1786156E-01   0.2195591E-01   0.1981231E-01
  0.5550000E+02   0.1767095E-01   0.2163185E-01   0.1957250E-01
  0.5650000E+02   0.1747090E-01   0.2129085E-01   0.1931964E-01
  0.5750000E+02   0.1726226E-01   0.2093500E-01   0.1905504E-01
  0.5850000E+02   0.1704585E-01   0.2056631E-01   0.1877998E-01
  0.5950000E+02   0.1682247E-01   0.2018668E-01   0.1849569E-01
  0.6050000E+02   0.1659287E-01   0.1979789E-01   0.1820333E-01
  0.6150000E+02   0.1635778E-01   0.1940164E-01   0.1790401E-01
  0.6250000E+02   0.1611791E-01   0.1899951E-01   0.1759879E-01
  0.6350000E+02   0.1587392E-01   0.1859297E-01   0.1728867E-01
  0.6450000E+02   0.1562644E-01   0.1818339E-01   0.1697460E-01
  0.6550000E+02   0.1537608E-01   0.1777204E-01   0.1665745E-01
  0.6650000E+02   0.1512340E-01   0.1736008E-01   0.1633806E-01
  0.6750000E+02   0.1486893E-01   0.1694859E-01   0.1601721E-01
  0.6850000E+02   0.1461319E-01   0.1653854E-01   0.1569562E-01
  0.6950000E+02   0.1435665E-01   0.1613082E-01   0.1537395E-01
  0.7050000E+02   0.1409974E-01   0.1572623E-01   0.1505283E-01
  0.7150000E+02   0.1384290E-01   0.1532549E-01   0.1473283E-01
  0.7250000E+02   0.1358649E-01   0.1492924E-01   0.1441446E-01
  0.7350000E+02   0.1333088E-01   0.1453806E-01   0.1409822E-01
  0.7450000E+02   0.1307641E-01   0.1415246E-01   0.1378453E-01
  0.7550000E+02   0.1282338E-01   0.1377286E-01   0.1347380E-01
  0.7650000E+02   0.1257207E-01   0.1339966E-01   0.1316637E-01
  0.7750000E+02   0.1232273E-01   0.1303317E-01   0.1286258E-01
  0.7850000E+02   0.1207562E-01   0.1267368E-01   0.1256270E-01
  0.7950000E+02   0.1183094E-01   0.1232141E-01   0.1226698E-01
  0.8050000E+02   0.1158889E-01   0.1197655E-01   0.1197566E-01
  0.8150000E+02   0.1134964E-01   0.1168893E-01   0.1168893E-01
  0.8250000E+02   0.1111336E-01   0.1140694E-01   0.1140694E-01
  0.8350000E+02   0.1088018E-01   0.1112985E-01   0.1112985E-01
  0.8450000E+02   0.1065023E-01   0.1085778E-01   0.1085778E-01
  0.8550000E+02   0.1036727E-01   0.1059082E-01   0.1059082E-01
  0.8650000E+02   0.1006876E-01   0.1032905E-01   0.1032905E-01
  0.8750000E+02   0.9778015E-02   0.1007253E-01   0.1007253E-01
  0.8850000E+02   0.9494999E-02   0.9821297E-02   0.9821297E-02
  0.8950000E+02   0.9219645E-02   0.9575386E-02   0.9575386E-02
  0.9050000E+02   0.8951872E-02   0.9343470E-02   0.9334807E-02
  0.9150000E+02   0.8691587E-02   0.9138435E-02   0.9099560E-02
  0.9250000E+02   0.8438686E-02   0.8937151E-02   0.8869633E-02
  0.9350000E+02   0.8193052E-02   0.8739634E-02   0.8645002E-02
  0.9450000E+02   0.7954563E-02   0.8545896E-02   0.8425636E-02
  0.9550000E+02   0.7723086E-02   0.8355938E-02   0.8211494E-02
  0.9650000E+02   0.7498484E-02   0.8169757E-02   0.8002526E-02
  0.9750000E+02   0.7280614E-02   0.7987341E-02   0.7798676E-02
  0.9850000E+02   0.7069328E-02   0.7808673E-02   0.7599882E-02
  0.9950000E+02   0.6864478E-02   0.7633734E-02   0.7406077E-02
  0.1005000E+03   0.6665910E-02   0.7462494E-02   0.7217188E-02
  0.1015000E+03   0.6473470E-02   0.7294925E-02   0.7033139E-02
  0.1025000E+03   0.6287003E-02   0.7130990E-02   0.6853850E-02
  0.1035000E+03   0.6106354E-02   0.6970652E-02   0.6679237E-02
  0.1045000E+03   0.5931367E-02   0.6813870E-02   0.6509214E-02
  0.1055000E+03   0.5761887E-02   0.6660597E-02   0.6343694E-02
  0.1065000E+03   0.5597762E-02   0.6510789E-02   0.6182587E-02
  0.1075000E+03   0.5438838E-02   0.6364395E-02   0.6025803E-02
  0.1085000E+03   0.5284966E-02   0.6221366E-02   0.5873249E-02
  0.1095000E+03   0.5135996E-02   0.6081647E-02   0.5724833E-02
  0.1105000E+03   0.4991784E-02   0.5945186E-02   0.5580462E-02
  0.1115000E+03   0.4852184E-02   0.5811927E-02   0.5440044E-02
  0.1125000E+03   0.4717056E-02   0.5681814E-02   0.5303486E-02
  0.1135000E+03   0.4586262E-02   0.5554790E-02   0.5170695E-02
  0.1145000E+03   0.4459665E-02   0.5430797E-02   0.5041579E-02
  0.1155000E+03   0.4337135E-02   0.5309777E-02   0.4916048E-02
  0.1165000E+03   0.4218542E-02   0.5191673E-02   0.4794011E-02
  0.1175000E+03   0.4103758E-02   0.5076425E-02   0.4675379E-02
  0.1185000E+03   0.3992663E-02   0.4963976E-02   0.4560063E-02
  0.1195000E+03   0.3885135E-02   0.4854266E-02   0.4447977E-02
  0.1205000E+03   0.3781058E-02   0.4747238E-02   0.4339034E-02
  0.1215000E+03   0.3680319E-02   0.4642834E-02   0.4233152E-02
  0.1225000E+03   0.3582807E-02   0.4540996E-02   0.4130247E-02
  0.1235000E+03   0.3488416E-02   0.4441667E-02   0.4030237E-02
  0.1245000E+03   0.3397041E-02   0.4344791E-02   0.3933043E-02
  0.1255000E+03   0.3308582E-02   0.4250312E-02   0.3838587E-02
  0.1265000E+03   0.3222941E-02   0.4158174E-02   0.3746792E-02
  0.1275000E+03   0.3140024E-02   0.4068322E-02   0.3657584E-02
  0.1285000E+03   0.3059739E-02   0.3980704E-02   0.3570889E-02
  0.1295000E+03   0.2981996E-02   0.3895265E-02   0.3486635E-02
  0.1305000E+03   0.2906710E-02   0.3811954E-02   0.3404753E-02
  0.1315000E+03   0.2833797E-02   0.3730718E-02   0.3325174E-02
  0.1325000E+03   0.2763178E-02   0.3651508E-02   0.3247833E-02
  0.1335000E+03   0.2694774E-02   0.3574274E-02   0.3172663E-02
  0.1345000E+03   0.2628510E-02   0.3498967E-02   0.3099603E-02
  0.1355000E+03   0.2564314E-02   0.3425538E-02   0.3028589E-02
  0.1365000E+03   0.2502114E-02   0.3353941E-02   0.2959563E-02
  0.1375000E+03   0.2441844E-02   0.3284131E-02   0.2892466E-02
  0.1385000E+03   0.2383437E-02   0.3216060E-02   0.2827240E-02
  0.1395000E+03   0.2326830E-02   0.3149687E-02   0.2763832E-02
  0.1405000E+03   0.2271962E-02   0.3084966E-02   0.2702186E-02
  0.1415000E+03   0.2218774E-02   0.3021857E-02   0.2642251E-02
  0.1425000E+03   0.2167209E-02   0.2960317E-02   0.2583977E-02
  0.1435000E+03   0.2117213E-02   0.2900306E-02   0.2527313E-02
  0.1445000E+03   0.2068731E-02   0.2841784E-02   0.2472211E-02
  0.1455000E+03   0.2021712E-02   0.2784713E-02   0.2418626E-02
  0.1465000E+03   0.1976108E-02   0.2729055E-02   0.2366512E-02
  0.1475000E+03   0.1931871E-02   0.2674774E-02   0.2315826E-02
  0.1485000E+03   0.1888954E-02   0.2621832E-02   0.2266524E-02
  0.1495000E+03   0.1847314E-02   0.2570196E-02   0.2218565E-02
  0.1505000E+03   0.1806907E-02   0.2519831E-02   0.2171910E-02
  0.1515000E+03   0.1767691E-02   0.2470703E-02   0.2126519E-02
  0.1525000E+03   0.1729629E-02   0.2422781E-02   0.2082355E-02
  0.1535000E+03   0.1692680E-02   0.2376031E-02   0.2039382E-02
  0.1545000E+03   0.1656808E-02   0.2330424E-02   0.1997563E-02
  0.1555000E+03   0.1621977E-02   0.2285929E-02   0.1956864E-02
  0.1565000E+03   0.1588153E-02   0.2242516E-02   0.1917252E-02
  0.1575000E+03   0.1555302E-02   0.2200158E-02   0.1878696E-02
  0.1585000E+03   0.1523393E-02   0.2158826E-02   0.1841162E-02
  0.1595000E+03   0.1492394E-02   0.2118493E-02   0.1804622E-02
  0.1605000E+03   0.1462276E-02   0.2079133E-02   0.1769045E-02
  0.1615000E+03   0.1433010E-02   0.2040719E-02   0.1734404E-02
  0.1625000E+03   0.1404568E-02   0.2003228E-02   0.1700670E-02
  0.1635000E+03   0.1376923E-02   0.1966634E-02   0.1667817E-02
  0.1645000E+03   0.1350050E-02   0.1930914E-02   0.1635818E-02
  0.1655000E+03   0.1323924E-02   0.1896044E-02   0.1604650E-02
  0.1665000E+03   0.1298520E-02   0.1862003E-02   0.1574287E-02
  0.1675000E+03   0.1273816E-02   0.1828768E-02   0.1544705E-02
  0.1685000E+03   0.1249789E-02   0.1796318E-02   0.1515882E-02
  0.1695000E+03   0.1226418E-02   0.1764632E-02   0.1487797E-02
  0.1705000E+03   0.1203681E-02   0.1733691E-02   0.1460426E-02
  0.1715000E+03   0.1181559E-02   0.1703474E-02   0.1433750E-02
  0.1725000E+03   0.1160032E-02   0.1673963E-02   0.1407748E-02
  0.1735000E+03   0.1139082E-02   0.1645139E-02   0.1382401E-02
  0.1745000E+03   0.1118690E-02   0.1616984E-02   0.1357690E-02
  0.1755000E+03   0.1098840E-02   0.1589480E-02   0.1333597E-02
  0.1765000E+03   0.1079514E-02   0.1562611E-02   0.1310104E-02
  0.1775000E+03   0.1060695E-02   0.1536360E-02   0.1287193E-02
  0.1785000E+03   0.1042369E-02   0.1510711E-02   0.1264848E-02
  0.1795000E+03   0.1024521E-02   0.1485647E-02   0.1243054E-02
  0.1805000E+03   0.1007135E-02   0.1461155E-02   0.1221793E-02
  0.1815000E+03   0.9901969E-03   0.1437219E-02   0.1201052E-02
  0.1825000E+03   0.9736940E-03   0.1413824E-02   0.1180815E-02
  0.1835000E+03   0.9576128E-03   0.1390957E-02   0.1161068E-02
  0.1845000E+03   0.9419404E-03   0.1368604E-02   0.1141797E-02
  0.1855000E+03   0.9266647E-03   0.1346752E-02   0.1122990E-02
  0.1865000E+03   0.9117738E-03   0.1325388E-02   0.1104632E-02
  0.1875000E+03   0.8972561E-03   0.1304499E-02   0.1086712E-02
  0.1885000E+03   0.8831006E-03   0.1284073E-02   0.1069218E-02
  0.1895000E+03   0.8692965E-03   0.1264099E-02   0.1052137E-02
  0.1905000E+03   0.8558335E-03   0.1244565E-02   0.1035458E-02
  0.1915000E+03   0.8427016E-03   0.1225459E-02   0.1019170E-02
  0.1925000E+03   0.8298912E-03   0.1206771E-02   0.1003262E-02
  0.1935000E+03   0.8173927E-03   0.1188490E-02   0.9877241E-03
  0.1945000E+03   0.8051973E-03   0.1170607E-02   0.9725461E-03
  0.1955000E+03   0.7932961E-03   0.1153110E-02   0.9577180E-03
  0.1965000E+03   0.7816806E-03   0.1135990E-02   0.9432304E-03
  0.1975000E+03   0.7703428E-03   0.1119238E-02   0.9290740E-03
  0.1985000E+03   0.7592746E-03   0.1102845E-02   0.9152399E-03
  0.1995000E+03   0.7484684E-03   0.1086801E-02   0.9017196E-03
  0.2005000E+03   0.7379168E-03   0.1071098E-02   0.8885044E-03
  0.2015000E+03   0.7276126E-03   0.1055727E-02   0.8755864E-03
  0.2025000E+03   0.7175489E-03   0.1040681E-02   0.8629576E-03
  0.2035000E+03   0.7077189E-03   0.1025951E-02   0.8506104E-03
  0.2045000E+03   0.6981162E-03   0.1011529E-02   0.8385372E-03
  0.2055000E+03   0.6887344E-03   0.9974074E-03   0.8267309E-03
  0.2065000E+03   0.6795675E-03   0.9835797E-03   0.8151845E-03
  0.2075000E+03   0.6706095E-03   0.9700382E-03   0.8038911E-03
  0.2085000E+03   0.6618548E-03   0.9567759E-03   0.7928442E-03
  0.2095000E+03   0.6532977E-03   0.9437861E-03   0.7820374E-03
  0.2105000E+03   0.6449330E-03   0.9310622E-03   0.7714644E-03
  0.2115000E+03   0.6367554E-03   0.9185977E-03   0.7611193E-03
  0.2125000E+03   0.6287599E-03   0.9063864E-03   0.7509961E-03
  0.2135000E+03   0.6209416E-03   0.8944222E-03   0.7410892E-03
  0.2145000E+03   0.6132958E-03   0.8826992E-03   0.7313931E-03
  0.2155000E+03   0.6058179E-03   0.8712116E-03   0.7219023E-03
  0.2165000E+03   0.5985035E-03   0.8599538E-03   0.7126118E-03
  0.2175000E+03   0.5913482E-03   0.8489204E-03   0.7035163E-03
  0.2185000E+03   0.5843480E-03   0.8381060E-03   0.6946111E-03
  0.2195000E+03   0.5774987E-03   0.8275054E-03   0.6858914E-03
  0.2205000E+03   0.5707964E-03   0.8171137E-03   0.6773525E-03
  0.2215000E+03   0.5642374E-03   0.8069259E-03   0.6689899E-03
  0.2225000E+03   0.5578178E-03   0.7969373E-03   0.6607992E-03
  0.2235000E+03   0.5515343E-03   0.7871432E-03   0.6527762E-03
  0.2245000E+03   0.5453831E-03   0.7775391E-03   0.6449168E-03
  0.2255000E+03   0.5393611E-03   0.7681206E-03   0.6372170E-03
  0.2265000E+03   0.5334650E-03   0.7588833E-03   0.6296728E-03
  0.2275000E+03   0.5276915E-03   0.7498232E-03   0.6222805E-03
  0.2285000E+03   0.5220375E-03   0.7409361E-03   0.6150364E-03
  0.2295000E+03   0.5165002E-03   0.7322181E-03   0.6079368E-03
  0.2305000E+03   0.5110765E-03   0.7236654E-03   0.6009784E-03
  0.2315000E+03   0.5057638E-03   0.7152741E-03   0.5941577E-03
  0.2325000E+03   0.5005591E-03   0.7070406E-03   0.5874714E-03
  0.2335000E+03   0.4954599E-03   0.6989614E-03   0.5809164E-03
  0.2345000E+03   0.4904636E-03   0.6910329E-03   0.5744895E-03
  0.2355000E+03   0.4855678E-03   0.6832518E-03   0.5681877E-03
  0.2365000E+03   0.4807698E-03   0.6756148E-03   0.5620081E-03
  0.2375000E+03   0.4760674E-03   0.6681187E-03   0.5559477E-03
  0.2385000E+03   0.4714584E-03   0.6607603E-03   0.5500039E-03
  0.2395000E+03   0.4669403E-03   0.6535366E-03   0.5441738E-03
  0.2405000E+03   0.4625112E-03   0.6464445E-03   0.5384548E-03
  0.2415000E+03   0.4581688E-03   0.6394813E-03   0.5328444E-03
  0.2425000E+03   0.4539112E-03   0.6326440E-03   0.5273401E-03
  0.2435000E+03   0.4497362E-03   0.6259300E-03   0.5219395E-03
  0.2445000E+03   0.4456421E-03   0.6193365E-03   0.5166401E-03
  0.2455000E+03   0.4416268E-03   0.6128608E-03   0.5114397E-03
  0.2465000E+03   0.4376887E-03   0.6065006E-03   0.5063360E-03
  0.2475000E+03   0.4338258E-03   0.6002532E-03   0.5013268E-03
  0.2485000E+03   0.4300364E-03   0.5941162E-03   0.4964101E-03
  0.2495000E+03   0.4263189E-03   0.5880873E-03   0.4915836E-03
  0.2505000E+03   0.4226716E-03   0.5821642E-03   0.4868455E-03
  0.2515000E+03   0.4190929E-03   0.5763445E-03   0.4821938E-03
  0.2525000E+03   0.4155813E-03   0.5706261E-03   0.4776265E-03
  0.2535000E+03   0.4121353E-03   0.5650070E-03   0.4731418E-03
  0.2545000E+03   0.4087533E-03   0.5594848E-03   0.4687378E-03
  0.2555000E+03   0.4054340E-03   0.5540577E-03   0.4644128E-03
  0.2565000E+03   0.4021759E-03   0.5487236E-03   0.4601651E-03
  0.2575000E+03   0.3989777E-03   0.5434806E-03   0.4559929E-03
  0.2585000E+03   0.3958381E-03   0.5383268E-03   0.4518947E-03
  0.2595000E+03   0.3927557E-03   0.5332604E-03   0.4478688E-03
  0.2605000E+03   0.3897294E-03   0.5282794E-03   0.4439137E-03
  0.2615000E+03   0.3867579E-03   0.5233823E-03   0.4400279E-03
  0.2625000E+03   0.3838400E-03   0.5185672E-03   0.4362099E-03
  0.2635000E+03   0.3809745E-03   0.5138324E-03   0.4324583E-03
  0.2645000E+03   0.3781604E-03   0.5091764E-03   0.4287715E-03
  0.2655000E+03   0.3753965E-03   0.5045976E-03   0.4251484E-03
  0.2665000E+03   0.3726817E-03   0.5000943E-03   0.4215875E-03
  0.2675000E+03   0.3700150E-03   0.4956650E-03   0.4180875E-03
  0.2685000E+03   0.3673954E-03   0.4913083E-03   0.4146472E-03
  0.2695000E+03   0.3648219E-03   0.4870227E-03   0.4112653E-03
  0.2705000E+03   0.3622935E-03   0.4828068E-03   0.4079406E-03
  0.2715000E+03   0.3598093E-03   0.4786591E-03   0.4046719E-03
  0.2725000E+03   0.3573683E-03   0.4745784E-03   0.4014582E-03
  0.2735000E+03   0.3549697E-03   0.4705633E-03   0.3982981E-03
  0.2745000E+03   0.3526126E-03   0.4666126E-03   0.3951907E-03
  0.2755000E+03   0.3502961E-03   0.4627248E-03   0.3921350E-03
  0.2765000E+03   0.3480193E-03   0.4588989E-03   0.3891297E-03
  0.2775000E+03   0.3457816E-03   0.4551336E-03   0.3861740E-03
  0.2785000E+03   0.3435820E-03   0.4514277E-03   0.3832668E-03
  0.2795000E+03   0.3414199E-03   0.4477801E-03   0.3804071E-03
  0.2805000E+03   0.3392944E-03   0.4441896E-03   0.3775941E-03
  0.2815000E+03   0.3372048E-03   0.4406552E-03   0.3748267E-03
  0.2825000E+03   0.3351504E-03   0.4371758E-03   0.3721041E-03
  0.2835000E+03   0.3331305E-03   0.4337503E-03   0.3694254E-03
  0.2845000E+03   0.3311444E-03   0.4303776E-03   0.3667897E-03
  0.2855000E+03   0.3291915E-03   0.4270569E-03   0.3641961E-03
  0.2865000E+03   0.3272710E-03   0.4237871E-03   0.3616440E-03
  0.2875000E+03   0.3253824E-03   0.4205672E-03   0.3591324E-03
  0.2885000E+03   0.3235250E-03   0.4173963E-03   0.3566606E-03
  0.2895000E+03   0.3216983E-03   0.4142736E-03   0.3542277E-03
  0.2905000E+03   0.3199015E-03   0.4111980E-03   0.3518331E-03
  0.2915000E+03   0.3181342E-03   0.4081687E-03   0.3494761E-03
  0.2925000E+03   0.3163958E-03   0.4051849E-03   0.3471558E-03
  0.2935000E+03   0.3146857E-03   0.4022456E-03   0.3448716E-03
  0.2945000E+03   0.3130033E-03   0.3993502E-03   0.3426229E-03
  0.2955000E+03   0.3113483E-03   0.3964978E-03   0.3404089E-03
  0.2965000E+03   0.3097199E-03   0.3936875E-03   0.3382290E-03
  0.2975000E+03   0.3081178E-03   0.3909187E-03   0.3360825E-03
  0.2985000E+03   0.3065414E-03   0.3881906E-03   0.3339689E-03
  0.2995000E+03   0.3049902E-03   0.3855024E-03   0.3318874E-03
  0.3005000E+03   0.3034639E-03   0.3828534E-03   0.3298376E-03
  0.3015000E+03   0.3019618E-03   0.3802429E-03   0.3278189E-03
  0.3025000E+03   0.3004836E-03   0.3776703E-03   0.3258306E-03
  0.3035000E+03   0.2990289E-03   0.3751348E-03   0.3238722E-03
  0.3045000E+03   0.2975971E-03   0.3726357E-03   0.3219431E-03
  0.3055000E+03   0.2961879E-03   0.3701725E-03   0.3200429E-03
  0.3065000E+03   0.2948008E-03   0.3677445E-03   0.3181710E-03
  0.3075000E+03   0.2934355E-03   0.3653511E-03   0.3163269E-03
  0.3085000E+03   0.2920916E-03   0.3629917E-03   0.3145100E-03
  0.3095000E+03   0.2907686E-03   0.3606656E-03   0.3127199E-03
  0.3105000E+03   0.2894662E-03   0.3583723E-03   0.3109562E-03
