             #w        R(w)_min        R(w)_max        R(w)_avg
  0.5000000E+00   0.5472538E-03   0.2322245E-02   0.1333495E-02
  0.1500000E+01   0.6901658E-03   0.2588107E-02   0.1557478E-02
  0.2500000E+01   0.8590646E-03   0.2868883E-02   0.1804123E-02
  0.3500000E+01   0.1056054E-02   0.3163739E-02   0.2073435E-02
  0.4500000E+01   0.1282922E-02   0.3471693E-02   0.2365119E-02
  0.5500000E+01   0.1541068E-02   0.3791637E-02   0.2678580E-02
  0.6500000E+01   0.1831437E-02   0.4122344E-02   0.3012929E-02
  0.7500000E+01   0.2154466E-02   0.4462495E-02   0.3366999E-02
  0.8500000E+01   0.2510055E-02   0.4810685E-02   0.3739360E-02
  0.9500000E+01   0.2897545E-02   0.5165453E-02   0.4128350E-02
  0.1050000E+02   0.3315722E-02   0.5525289E-02   0.4532096E-02
  0.1150000E+02   0.3762831E-02   0.5888662E-02   0.4948553E-02
  0.1250000E+02   0.4236614E-02   0.6254029E-02   0.5375538E-02
  0.1350000E+02   0.4734356E-02   0.6619858E-02   0.5810759E-02
  0.1450000E+02   0.5252940E-02   0.6984638E-02   0.6251859E-02
  0.1550000E+02   0.5788922E-02   0.7346896E-02   0.6696447E-02
  0.1650000E+02   0.6338599E-02   0.7705210E-02   0.7142131E-02
  0.1750000E+02   0.6898085E-02   0.8058217E-02   0.7586552E-02
  0.1850000E+02   0.7463396E-02   0.8404627E-02   0.8027411E-02
  0.1950000E+02   0.8030513E-02   0.8743228E-02   0.8462494E-02
  0.2050000E+02   0.8595463E-02   0.9072891E-02   0.8889698E-02
  0.2150000E+02   0.9154380E-02   0.9392581E-02   0.9307045E-02
  0.2250000E+02   0.9701353E-02   0.9712704E-02   0.9712704E-02
  0.2350000E+02   0.9998362E-02   0.1023952E-01   0.1010500E-01
  0.2450000E+02   0.1028286E-01   0.1075903E-01   0.1048241E-01
  0.2550000E+02   0.1055419E-01   0.1125914E-01   0.1084360E-01
  0.2650000E+02   0.1081179E-01   0.1173724E-01   0.1118739E-01
  0.2750000E+02   0.1105521E-01   0.1219101E-01   0.1151280E-01
  0.2850000E+02   0.1128408E-01   0.1261851E-01   0.1181899E-01
  0.2950000E+02   0.1149810E-01   0.1301810E-01   0.1210530E-01
  0.3050000E+02   0.1169709E-01   0.1338851E-01   0.1237123E-01
  0.3150000E+02   0.1188092E-01   0.1372877E-01   0.1261644E-01
  0.3250000E+02   0.1204954E-01   0.1403822E-01   0.1284072E-01
  0.3350000E+02   0.1220299E-01   0.1431650E-01   0.1304401E-01
  0.3450000E+02   0.1234135E-01   0.1456352E-01   0.1322637E-01
  0.3550000E+02   0.1246478E-01   0.1477944E-01   0.1338797E-01
  0.3650000E+02   0.1257347E-01   0.1496465E-01   0.1352909E-01
  0.3750000E+02   0.1266768E-01   0.1511971E-01   0.1365009E-01
  0.3850000E+02   0.1274771E-01   0.1524539E-01   0.1375143E-01
  0.3950000E+02   0.1281390E-01   0.1534259E-01   0.1383364E-01
  0.4050000E+02   0.1286661E-01   0.1541236E-01   0.1389730E-01
  0.4150000E+02   0.1290625E-01   0.1545582E-01   0.1394304E-01
  0.4250000E+02   0.1293323E-01   0.1547420E-01   0.1397156E-01
  0.4350000E+02   0.1294802E-01   0.1546878E-01   0.1398357E-01
  0.4450000E+02   0.1295106E-01   0.1544091E-01   0.1397981E-01
  0.4550000E+02   0.1294283E-01   0.1539194E-01   0.1396105E-01
  0.4650000E+02   0.1292383E-01   0.1532324E-01   0.1392807E-01
  0.4750000E+02   0.1289454E-01   0.1523621E-01   0.1388164E-01
  0.4850000E+02   0.1285546E-01   0.1513219E-01   0.1382255E-01
  0.4950000E+02   0.1280708E-01   0.1501255E-01   0.1375159E-01
  0.5050000E+02   0.1274991E-01   0.1487861E-01   0.1366952E-01
  0.5150000E+02   0.1268443E-01   0.1473163E-01   0.1357711E-01
  0.5250000E+02   0.1261114E-01   0.1457287E-01   0.1347510E-01
  0.5350000E+02   0.1253050E-01   0.1440352E-01   0.1336423E-01
  0.5450000E+02   0.1244300E-01   0.1422472E-01   0.1324519E-01
  0.5550000E+02   0.1234910E-01   0.1403757E-01   0.1311868E-01
  0.5650000E+02   0.1224923E-01   0.1384310E-01   0.1298535E-01
  0.5750000E+02   0.1214385E-01   0.1364229E-01   0.1284585E-01
  0.5850000E+02   0.1203338E-01   0.1343606E-01   0.1270078E-01
  0.5950000E+02   0.1191823E-01   0.1322528E-01   0.1255072E-01
  0.6050000E+02   0.1179879E-01   0.1301077E-01   0.1239625E-01
  0.6150000E+02   0.1167545E-01   0.1279327E-01   0.1223788E-01
  0.6250000E+02   0.1154858E-01   0.1257348E-01   0.1207611E-01
  0.6350000E+02   0.1141853E-01   0.1235207E-01   0.1191143E-01
  0.6450000E+02   0.1128564E-01   0.1212962E-01   0.1174428E-01
  0.6550000E+02   0.1115023E-01   0.1190669E-01   0.1157509E-01
  0.6650000E+02   0.1101261E-01   0.1168379E-01   0.1140425E-01
  0.6750000E+02   0.1087308E-01   0.1146136E-01   0.1123213E-01
  0.6850000E+02   0.1073192E-01   0.1123984E-01   0.1105909E-01
  0.6950000E+02   0.1058938E-01   0.1101960E-01   0.1088544E-01
  0.7050000E+02   0.1044573E-01   0.1080098E-01   0.1071149E-01
  0.7150000E+02   0.1030119E-01   0.1058429E-01   0.1053753E-01
  0.7250000E+02   0.1015599E-01   0.1036980E-01   0.1036380E-01
  0.7350000E+02   0.1001034E-01   0.1019056E-01   0.1019056E-01
  0.7450000E+02   0.9864440E-02   0.1001801E-01   0.1001801E-01
  0.7550000E+02   0.9718475E-02   0.9846372E-02   0.9846372E-02
  0.7650000E+02   0.9538296E-02   0.9675819E-02   0.9675819E-02
  0.7750000E+02   0.9337912E-02   0.9506523E-02   0.9506523E-02
  0.7850000E+02   0.9140796E-02   0.9338639E-02   0.9338639E-02
  0.7950000E+02   0.8947045E-02   0.9172306E-02   0.9172306E-02
  0.8050000E+02   0.8756741E-02   0.9007649E-02   0.9007649E-02
  0.8150000E+02   0.8569950E-02   0.8850257E-02   0.8844781E-02
  0.8250000E+02   0.8386721E-02   0.8708086E-02   0.8683803E-02
  0.8350000E+02   0.8207090E-02   0.8566945E-02   0.8524803E-02
  0.8450000E+02   0.8031082E-02   0.8426926E-02   0.8367861E-02
  0.8550000E+02   0.7858709E-02   0.8288117E-02   0.8213044E-02
  0.8650000E+02   0.7689975E-02   0.8150597E-02   0.8060412E-02
  0.8750000E+02   0.7524873E-02   0.8014437E-02   0.7910016E-02
  0.8850000E+02   0.7363388E-02   0.7879703E-02   0.7761898E-02
  0.8950000E+02   0.7205499E-02   0.7746452E-02   0.7616094E-02
  0.9050000E+02   0.7051178E-02   0.7614738E-02   0.7472632E-02
  0.9150000E+02   0.6900390E-02   0.7484606E-02   0.7331534E-02
  0.9250000E+02   0.6753097E-02   0.7356098E-02   0.7192816E-02
  0.9350000E+02   0.6609255E-02   0.7229251E-02   0.7056489E-02
  0.9450000E+02   0.6468817E-02   0.7104095E-02   0.6922558E-02
  0.9550000E+02   0.6331732E-02   0.6980657E-02   0.6791024E-02
  0.9650000E+02   0.6197946E-02   0.6858960E-02   0.6661884E-02
  0.9750000E+02   0.6067404E-02   0.6739022E-02   0.6535132E-02
  0.9850000E+02   0.5940047E-02   0.6620859E-02   0.6410757E-02
  0.9950000E+02   0.5815817E-02   0.6504481E-02   0.6288745E-02
  0.1005000E+03   0.5694652E-02   0.6389898E-02   0.6169080E-02
  0.1015000E+03   0.5576491E-02   0.6277113E-02   0.6051742E-02
  0.1025000E+03   0.5461270E-02   0.6166131E-02   0.5936712E-02
  0.1035000E+03   0.5348927E-02   0.6056950E-02   0.5823964E-02
  0.1045000E+03   0.5239398E-02   0.5949569E-02   0.5713475E-02
  0.1055000E+03   0.5132620E-02   0.5843982E-02   0.5605216E-02
  0.1065000E+03   0.5028530E-02   0.5740183E-02   0.5499160E-02
  0.1075000E+03   0.4927064E-02   0.5638163E-02   0.5395276E-02
  0.1085000E+03   0.4828160E-02   0.5537912E-02   0.5293535E-02
  0.1095000E+03   0.4731755E-02   0.5439419E-02   0.5193904E-02
  0.1105000E+03   0.4637789E-02   0.5342668E-02   0.5096351E-02
  0.1115000E+03   0.4546200E-02   0.5247647E-02   0.5000844E-02
  0.1125000E+03   0.4456928E-02   0.5154340E-02   0.4907347E-02
  0.1135000E+03   0.4369915E-02   0.5062728E-02   0.4815827E-02
  0.1145000E+03   0.4285102E-02   0.4972795E-02   0.4726249E-02
  0.1155000E+03   0.4202431E-02   0.4884522E-02   0.4638579E-02
  0.1165000E+03   0.4121847E-02   0.4797888E-02   0.4552782E-02
  0.1175000E+03   0.4043295E-02   0.4712875E-02   0.4468823E-02
  0.1185000E+03   0.3966720E-02   0.4629461E-02   0.4386667E-02
  0.1195000E+03   0.3892070E-02   0.4547624E-02   0.4306278E-02
  0.1205000E+03   0.3819292E-02   0.4467344E-02   0.4227623E-02
  0.1215000E+03   0.3748337E-02   0.4388597E-02   0.4150667E-02
  0.1225000E+03   0.3679155E-02   0.4311362E-02   0.4075374E-02
  0.1235000E+03   0.3611697E-02   0.4235615E-02   0.4001712E-02
  0.1245000E+03   0.3545916E-02   0.4161333E-02   0.3929646E-02
  0.1255000E+03   0.3481767E-02   0.4088494E-02   0.3859142E-02
  0.1265000E+03   0.3419204E-02   0.4017073E-02   0.3790169E-02
  0.1275000E+03   0.3358184E-02   0.3947048E-02   0.3722692E-02
  0.1285000E+03   0.3298664E-02   0.3878395E-02   0.3656680E-02
  0.1295000E+03   0.3240602E-02   0.3811091E-02   0.3592100E-02
  0.1305000E+03   0.3183958E-02   0.3745113E-02   0.3528922E-02
  0.1315000E+03   0.3128694E-02   0.3680436E-02   0.3467114E-02
  0.1325000E+03   0.3074770E-02   0.3617038E-02   0.3406647E-02
  0.1335000E+03   0.3022149E-02   0.3554896E-02   0.3347489E-02
  0.1345000E+03   0.2970795E-02   0.3493986E-02   0.3289612E-02
  0.1355000E+03   0.2920674E-02   0.3434287E-02   0.3232987E-02
  0.1365000E+03   0.2871750E-02   0.3375774E-02   0.3177585E-02
  0.1375000E+03   0.2823990E-02   0.3318427E-02   0.3123379E-02
  0.1385000E+03   0.2777363E-02   0.3262222E-02   0.3070341E-02
  0.1395000E+03   0.2731836E-02   0.3207138E-02   0.3018444E-02
  0.1405000E+03   0.2687380E-02   0.3153153E-02   0.2967662E-02
  0.1415000E+03   0.2643964E-02   0.3100246E-02   0.2917970E-02
  0.1425000E+03   0.2601560E-02   0.3048395E-02   0.2869341E-02
  0.1435000E+03   0.2560140E-02   0.2997579E-02   0.2821752E-02
  0.1445000E+03   0.2519677E-02   0.2947778E-02   0.2775179E-02
  0.1455000E+03   0.2480144E-02   0.2898971E-02   0.2729597E-02
  0.1465000E+03   0.2441516E-02   0.2851139E-02   0.2684983E-02
  0.1475000E+03   0.2403768E-02   0.2804262E-02   0.2641315E-02
  0.1485000E+03   0.2366877E-02   0.2758319E-02   0.2598571E-02
  0.1495000E+03   0.2330818E-02   0.2713293E-02   0.2556729E-02
  0.1505000E+03   0.2295569E-02   0.2669164E-02   0.2515768E-02
  0.1515000E+03   0.2261108E-02   0.2625914E-02   0.2475668E-02
  0.1525000E+03   0.2227414E-02   0.2583524E-02   0.2436407E-02
  0.1535000E+03   0.2194465E-02   0.2541977E-02   0.2397966E-02
  0.1545000E+03   0.2162242E-02   0.2501255E-02   0.2360327E-02
  0.1555000E+03   0.2130726E-02   0.2461341E-02   0.2323469E-02
  0.1565000E+03   0.2099897E-02   0.2422217E-02   0.2287376E-02
  0.1575000E+03   0.2069736E-02   0.2383868E-02   0.2252028E-02
  0.1585000E+03   0.2040227E-02   0.2346277E-02   0.2217409E-02
  0.1595000E+03   0.2011351E-02   0.2309428E-02   0.2183501E-02
  0.1605000E+03   0.1983093E-02   0.2273306E-02   0.2150288E-02
  0.1615000E+03   0.1955435E-02   0.2237894E-02   0.2117753E-02
  0.1625000E+03   0.1928362E-02   0.2203178E-02   0.2085880E-02
  0.1635000E+03   0.1901858E-02   0.2169142E-02   0.2054654E-02
  0.1645000E+03   0.1875909E-02   0.2135774E-02   0.2024060E-02
  0.1655000E+03   0.1850499E-02   0.2103057E-02   0.1994083E-02
  0.1665000E+03   0.1825616E-02   0.2070979E-02   0.1964709E-02
  0.1675000E+03   0.1801246E-02   0.2039526E-02   0.1935923E-02
  0.1685000E+03   0.1777374E-02   0.2008684E-02   0.1907712E-02
  0.1695000E+03   0.1753989E-02   0.1978441E-02   0.1880062E-02
  0.1705000E+03   0.1731077E-02   0.1948783E-02   0.1852961E-02
  0.1715000E+03   0.1708627E-02   0.1919698E-02   0.1826396E-02
  0.1725000E+03   0.1686627E-02   0.1891174E-02   0.1800354E-02
  0.1735000E+03   0.1665066E-02   0.1863198E-02   0.1774823E-02
  0.1745000E+03   0.1643932E-02   0.1835760E-02   0.1749792E-02
  0.1755000E+03   0.1623215E-02   0.1808847E-02   0.1725248E-02
  0.1765000E+03   0.1602904E-02   0.1782448E-02   0.1701182E-02
  0.1775000E+03   0.1582989E-02   0.1756552E-02   0.1677581E-02
  0.1785000E+03   0.1563461E-02   0.1731149E-02   0.1654435E-02
  0.1795000E+03   0.1544309E-02   0.1706227E-02   0.1631734E-02
  0.1805000E+03   0.1525524E-02   0.1681778E-02   0.1609468E-02
  0.1815000E+03   0.1507098E-02   0.1657789E-02   0.1587627E-02
  0.1825000E+03   0.1489021E-02   0.1634253E-02   0.1566200E-02
  0.1835000E+03   0.1471285E-02   0.1611158E-02   0.1545179E-02
  0.1845000E+03   0.1453882E-02   0.1588496E-02   0.1524555E-02
  0.1855000E+03   0.1436804E-02   0.1566257E-02   0.1504319E-02
  0.1865000E+03   0.1420042E-02   0.1544433E-02   0.1484461E-02
  0.1875000E+03   0.1403590E-02   0.1523014E-02   0.1464974E-02
  0.1885000E+03   0.1387439E-02   0.1501993E-02   0.1445848E-02
  0.1895000E+03   0.1371583E-02   0.1481359E-02   0.1427077E-02
  0.1905000E+03   0.1356014E-02   0.1461106E-02   0.1408652E-02
  0.1915000E+03   0.1340726E-02   0.1441225E-02   0.1390565E-02
  0.1925000E+03   0.1325713E-02   0.1421709E-02   0.1372809E-02
  0.1935000E+03   0.1310967E-02   0.1402549E-02   0.1355377E-02
  0.1945000E+03   0.1296483E-02   0.1383738E-02   0.1338261E-02
  0.1955000E+03   0.1282254E-02   0.1365269E-02   0.1321455E-02
  0.1965000E+03   0.1268274E-02   0.1347135E-02   0.1304951E-02
  0.1975000E+03   0.1254539E-02   0.1329328E-02   0.1288744E-02
  0.1985000E+03   0.1241041E-02   0.1311841E-02   0.1272826E-02
  0.1995000E+03   0.1227777E-02   0.1294669E-02   0.1257191E-02
  0.2005000E+03   0.1214739E-02   0.1277804E-02   0.1241834E-02
  0.2015000E+03   0.1201924E-02   0.1261240E-02   0.1226748E-02
  0.2025000E+03   0.1189326E-02   0.1244971E-02   0.1211927E-02
  0.2035000E+03   0.1176941E-02   0.1228990E-02   0.1197366E-02
  0.2045000E+03   0.1164763E-02   0.1213292E-02   0.1183059E-02
  0.2055000E+03   0.1152788E-02   0.1197871E-02   0.1169001E-02
  0.2065000E+03   0.1141012E-02   0.1182720E-02   0.1155186E-02
  0.2075000E+03   0.1129429E-02   0.1167836E-02   0.1141609E-02
  0.2085000E+03   0.1118037E-02   0.1153211E-02   0.1128265E-02
  0.2095000E+03   0.1106830E-02   0.1138840E-02   0.1115150E-02
  0.2105000E+03   0.1095804E-02   0.1124719E-02   0.1102258E-02
  0.2115000E+03   0.1084957E-02   0.1110842E-02   0.1089584E-02
  0.2125000E+03   0.1074283E-02   0.1097205E-02   0.1077125E-02
  0.2135000E+03   0.1063779E-02   0.1083802E-02   0.1064875E-02
  0.2145000E+03   0.1052831E-02   0.1070628E-02   0.1052831E-02
  0.2155000E+03   0.1040987E-02   0.1057680E-02   0.1040987E-02
  0.2165000E+03   0.1029341E-02   0.1044951E-02   0.1029341E-02
  0.2175000E+03   0.1017887E-02   0.1032439E-02   0.1017887E-02
  0.2185000E+03   0.1006623E-02   0.1020138E-02   0.1006623E-02
  0.2195000E+03   0.9955427E-03   0.1008045E-02   0.9955427E-03
  0.2205000E+03   0.9846440E-03   0.9961547E-03   0.9846440E-03
  0.2215000E+03   0.9739229E-03   0.9854521E-03   0.9739229E-03
  0.2225000E+03   0.9633756E-03   0.9763254E-03   0.9633756E-03
  0.2235000E+03   0.9529988E-03   0.9673362E-03   0.9529988E-03
  0.2245000E+03   0.9427888E-03   0.9584817E-03   0.9427888E-03
  0.2255000E+03   0.9327425E-03   0.9497591E-03   0.9327425E-03
  0.2265000E+03   0.9228564E-03   0.9411658E-03   0.9228564E-03
  0.2275000E+03   0.9131275E-03   0.9326990E-03   0.9131275E-03
  0.2285000E+03   0.9035525E-03   0.9243563E-03   0.9035525E-03
  0.2295000E+03   0.8941284E-03   0.9161352E-03   0.8941284E-03
  0.2305000E+03   0.8848523E-03   0.9080332E-03   0.8848523E-03
  0.2315000E+03   0.8757212E-03   0.9000480E-03   0.8757212E-03
  0.2325000E+03   0.8667322E-03   0.8921772E-03   0.8667322E-03
  0.2335000E+03   0.8578826E-03   0.8844186E-03   0.8578826E-03
  0.2345000E+03   0.8488970E-03   0.8767700E-03   0.8491696E-03
  0.2355000E+03   0.8396124E-03   0.8692293E-03   0.8405907E-03
  0.2365000E+03   0.8304755E-03   0.8617942E-03   0.8321431E-03
  0.2375000E+03   0.8214836E-03   0.8544629E-03   0.8238243E-03
  0.2385000E+03   0.8126337E-03   0.8472332E-03   0.8156320E-03
  0.2395000E+03   0.8039233E-03   0.8401032E-03   0.8075635E-03
  0.2405000E+03   0.7953496E-03   0.8330711E-03   0.7996166E-03
  0.2415000E+03   0.7869100E-03   0.8261349E-03   0.7917889E-03
  0.2425000E+03   0.7786020E-03   0.8192928E-03   0.7840782E-03
  0.2435000E+03   0.7704231E-03   0.8125431E-03   0.7764823E-03
  0.2445000E+03   0.7623708E-03   0.8058840E-03   0.7689989E-03
  0.2455000E+03   0.7544428E-03   0.7993138E-03   0.7616260E-03
  0.2465000E+03   0.7466366E-03   0.7928309E-03   0.7543615E-03
  0.2475000E+03   0.7389500E-03   0.7864336E-03   0.7472033E-03
  0.2485000E+03   0.7313808E-03   0.7801204E-03   0.7401494E-03
  0.2495000E+03   0.7239268E-03   0.7738896E-03   0.7331980E-03
  0.2505000E+03   0.7165858E-03   0.7677399E-03   0.7263472E-03
  0.2515000E+03   0.7093557E-03   0.7616697E-03   0.7195950E-03
  0.2525000E+03   0.7022345E-03   0.7556776E-03   0.7129396E-03
  0.2535000E+03   0.6952202E-03   0.7497621E-03   0.7063794E-03
  0.2545000E+03   0.6883107E-03   0.7439220E-03   0.6999124E-03
  0.2555000E+03   0.6815042E-03   0.7381557E-03   0.6935371E-03
  0.2565000E+03   0.6747987E-03   0.7324621E-03   0.6872518E-03
  0.2575000E+03   0.6681925E-03   0.7268398E-03   0.6810548E-03
  0.2585000E+03   0.6616836E-03   0.7212876E-03   0.6749445E-03
  0.2595000E+03   0.6552704E-03   0.7158042E-03   0.6689195E-03
  0.2605000E+03   0.6489511E-03   0.7103884E-03   0.6629781E-03
  0.2615000E+03   0.6427240E-03   0.7050391E-03   0.6571188E-03
  0.2625000E+03   0.6365875E-03   0.6997550E-03   0.6513403E-03
  0.2635000E+03   0.6305399E-03   0.6945352E-03   0.6456410E-03
  0.2645000E+03   0.6245795E-03   0.6893783E-03   0.6400196E-03
  0.2655000E+03   0.6187050E-03   0.6842835E-03   0.6344747E-03
  0.2665000E+03   0.6129147E-03   0.6792496E-03   0.6290049E-03
  0.2675000E+03   0.6072070E-03   0.6742755E-03   0.6236090E-03
  0.2685000E+03   0.6015807E-03   0.6693603E-03   0.6182856E-03
  0.2695000E+03   0.5960342E-03   0.6645030E-03   0.6130334E-03
  0.2705000E+03   0.5905661E-03   0.6597026E-03   0.6078514E-03
  0.2715000E+03   0.5851750E-03   0.6549582E-03   0.6027381E-03
  0.2725000E+03   0.5798596E-03   0.6502687E-03   0.5976925E-03
  0.2735000E+03   0.5746186E-03   0.6456334E-03   0.5927134E-03
  0.2745000E+03   0.5694506E-03   0.6410513E-03   0.5877996E-03
  0.2755000E+03   0.5643545E-03   0.6365216E-03   0.5829501E-03
  0.2765000E+03   0.5593288E-03   0.6320433E-03   0.5781637E-03
  0.2775000E+03   0.5543725E-03   0.6276157E-03   0.5734394E-03
  0.2785000E+03   0.5494844E-03   0.6232380E-03   0.5687761E-03
  0.2795000E+03   0.5446632E-03   0.6189092E-03   0.5641728E-03
  0.2805000E+03   0.5399078E-03   0.6146287E-03   0.5596285E-03
  0.2815000E+03   0.5352171E-03   0.6103957E-03   0.5551422E-03
  0.2825000E+03   0.5305900E-03   0.6062094E-03   0.5507130E-03
  0.2835000E+03   0.5260254E-03   0.6020691E-03   0.5463398E-03
  0.2845000E+03   0.5215223E-03   0.5979740E-03   0.5420218E-03
  0.2855000E+03   0.5170795E-03   0.5939235E-03   0.5377580E-03
  0.2865000E+03   0.5126962E-03   0.5899168E-03   0.5335476E-03
  0.2875000E+03   0.5083712E-03   0.5859532E-03   0.5293897E-03
  0.2885000E+03   0.5041037E-03   0.5820322E-03   0.5252834E-03
  0.2895000E+03   0.4998926E-03   0.5781530E-03   0.5212280E-03
  0.2905000E+03   0.4957370E-03   0.5743149E-03   0.5172224E-03
  0.2915000E+03   0.4916360E-03   0.5705175E-03   0.5132661E-03
  0.2925000E+03   0.4875887E-03   0.5667600E-03   0.5093581E-03
  0.2935000E+03   0.4835942E-03   0.5630418E-03   0.5054976E-03
  0.2945000E+03   0.4796516E-03   0.5593624E-03   0.5016841E-03
  0.2955000E+03   0.4757601E-03   0.5557211E-03   0.4979165E-03
  0.2965000E+03   0.4719188E-03   0.5521174E-03   0.4941944E-03
  0.2975000E+03   0.4681270E-03   0.5485507E-03   0.4905168E-03
  0.2985000E+03   0.4643838E-03   0.5450206E-03   0.4868832E-03
  0.2995000E+03   0.4606884E-03   0.5415263E-03   0.4832928E-03
  0.3005000E+03   0.4570400E-03   0.5380675E-03   0.4797450E-03
  0.3015000E+03   0.4534380E-03   0.5346436E-03   0.4762390E-03
  0.3025000E+03   0.4498815E-03   0.5312540E-03   0.4727743E-03
  0.3035000E+03   0.4463698E-03   0.5278984E-03   0.4693502E-03
  0.3045000E+03   0.4429022E-03   0.5245761E-03   0.4659660E-03
  0.3055000E+03   0.4394780E-03   0.5212867E-03   0.4626212E-03
  0.3065000E+03   0.4360965E-03   0.5180298E-03   0.4593151E-03
  0.3075000E+03   0.4327571E-03   0.5148049E-03   0.4560472E-03
  0.3085000E+03   0.4294590E-03   0.5116115E-03   0.4528168E-03
  0.3095000E+03   0.4262016E-03   0.5084491E-03   0.4496235E-03
  0.3105000E+03   0.4229843E-03   0.5053175E-03   0.4464665E-03
