#w    R(w)_min   R(w)_max   R(w)_avg 
0.5   -1.9276388331503167e-06   -1.1138959104359965e-06   -1.5186543953226546e-06
1.5002000400080016   -3.013373741851581e-06   -2.7466521895793663e-06   -2.8593757152964367e-06
2.500400080016003   -4.038422083599441e-06   -4.310101955597998e-06   -4.135561271895494e-06
3.5006001200240044   -4.868217253650649e-06   -5.5367004399772756e-06   -5.151152210700746e-06
4.500800160032006   -5.3669100160879256e-06   -6.15543096777382e-06   -5.707830811173845e-06
5.501000200040008   -5.397387041469859e-06   -5.891849301349319e-06   -5.605050342440293e-06
6.501200240048009   -4.821289711518859e-06   -4.468128782114506e-06   -4.640065424172417e-06
7.501400280056011   -3.499033194358666e-06   -1.603106277828603e-06   -2.607962897903327e-06
8.501600320064012   -1.3026733489083991e-06   2.963492418688035e-06   6.801651780301159e-07
9.501800360072014   1.7112849369107364e-06   9.145536746752335e-06   5.153084472890854e-06
10.502000400080016   5.345841783437455e-06   1.6592196632284487e-05   1.0541073384251634e-05
11.502200440088018   9.398178355566024e-06   2.4941050343385206e-05   1.6565953775448684e-05
12.502400480096018   1.3663037016068809e-05   3.3824444187971256e-05   2.2945863314498704e-05
13.50260052010402   1.7932743023700222e-05   4.2869535992643e-05   2.9395287189772874e-05
14.502800560112021   2.199722656265045e-05   5.169833939056949e-05   3.562509037768709e-05
15.503000600120023   2.5644045107036833e-05   5.992776892648933e-05   4.1342550468159124e-05
16.503200640128025   2.8658865381819544e-05   6.717046076842524e-05   4.625200522793555e-05
17.503400680136025   3.092742220002004e-05   7.320682096486384e-05   5.019120859035268e-05
18.50360072014403   3.256633588111383e-05   7.820596700126605e-05   5.330628748824287e-05
19.50380076015203   3.372679155236427e-05   8.239470831682832e-05   5.578920609377466e-05
20.504000800160032   3.4563201686659155e-05   8.600469286149727e-05   5.78358582731796e-05
21.504200840168032   3.523322010216322e-05   8.927243463553161e-05   5.964608657297513e-05
22.504400880176036   3.589775610040264e-05   9.243934152871209e-05   6.142370140321315e-05
23.504600920184036   3.67209887464812e-05   9.575174346543513e-05   6.337650042228476e-05
24.504800960192036   3.787038129499017e-05   9.946092086127046e-05   6.571628812744155e-05
25.50500100020004   3.9501513452260743e-05   0.00010379675866501591   6.863767348621326e-05
26.50520104020804   4.1678194280882116e-05   0.00010882914850286196   7.220659287028525e-05
27.505401080216043   4.442758578748525e-05   0.00011456416231145643   7.643780249188504e-05
28.505601120224043   4.7775299469772394e-05   0.00012100511187398668   8.13440320371972e-05
29.505801160232046   5.174541799217865e-05   0.00012815259367215866   8.69360216060516e-05
30.506001200240046   5.636044576634385e-05   0.00013600441021859798   9.322245925745419e-05
31.50620124024805   6.16412588824608e-05   0.0001445554903310622   0.00010020991772061538
32.50640128025605   6.760705438254277e-05   0.00015379780833337677   0.00010790279025992777
33.50660132026405   7.427531630244046e-05   0.00016372085402211094   0.00011630354505603804
34.50680136027205   8.166247458583815e-05   0.00017432043795222697   0.00012541793024653842
35.50700140028005   8.978548548839403e-05   0.00018559980922475288   0.0001352560753382183
36.50720144028806   9.866224434839839e-05   0.00019756410733619615   0.00014582945547013382
37.50740148029606   0.00010831162384093494   0.0002102202547379563   0.0001571508438019586
38.50760152030406   0.00011875351083416981   0.00022357702429123138   0.00016923436310860103
39.50780156031206   0.00013000884371245378   0.000237645107634073   0.00018209553805928198
40.508001600320064   0.0001420996501734437   0.00025243718447454946   0.000195751348191434
41.50820164032806   0.00015504947105470795   0.0002679681802158765   0.00021022056138722181
42.508401680336064   0.00016889877693522892   0.0002842625558484371   0.00022553482772331233
43.50860172034407   0.00018370996400944342   0.0003013554546865031   0.0002417417024491948
44.50880176035207   0.00019954766598775592   0.0003192824440186988   0.0002588900341277864
45.50900180036007   0.00021647731218604128   0.0003380787738491641   0.00027702889987703987
46.50920184036807   0.00023456514601126775   0.0003577793663249032   0.0002962076102895109
47.509401880376075   0.00025387824363462785   0.0003784188049512656   0.00031647571435888675
48.50960192038407   0.00027448453285495246   0.00040003132359256607   0.00033788300441373563
49.509801960392075   0.00029645273399762917   0.0004226509197039339   0.0003604795427067326
50.51000200040008   0.00031984393097455823   0.00044632478767600635   0.0003843180064683834
51.51020204040808   0.0003447037057345027   0.00047112581632050953   0.00040945587794584805
52.51040208041608   0.00037107604428416924   0.0004971304477811277   0.00043595160947248644
53.51060212042408   0.0003990050989616299   0.0005244159096755501   0.0004638641555428677
54.510802160432085   0.0004285352034559388   0.0005530602317217555   0.0004932529892775282
55.51100220044009   0.00045971088803653407   0.0005831422625963128   0.0005241781191170103
56.511202240448085   0.0004925768949954311   0.000614741687027497   0.0005567001057480911
57.51140228045609   0.0005271783250321266   0.0006479389113251585   0.0005908800794544752
58.51160232046409   0.0005635887855186383   0.000682786704961319   0.0006267797741081996
59.51180236047209   0.0006019457130658555   0.0007192745327828801   0.0006644614199600063
60.51200240048009   0.0006423959848310696   0.000757383352347475   0.0007039875519564097
61.512202440488096   0.0006850873400683973   0.0007970942767090125   0.0007454210000760308
62.5124024804961   0.0007301683807938101   0.00083838859082659   0.0007888248990667828
63.512602520504096   0.0007777885724296526   0.0008812477682182433   0.000834262698301301
64.5128025605121   0.0008280982444235632   0.0009256534878616007   0.0008817981717495675
65.5130026005201   0.0008812480726519385   0.0009715881425106652   0.0009314954139444982
66.5132026405281   0.0009372805796761731   0.001019137609046718   0.0009834158997414004
67.5134026805361   0.0009959955617336962   0.0010686181430407044   0.0010376148605779874
68.5136027205441   0.0010571591187606678   0.0011203777549311897   0.0010941469999947117
69.51380276055211   0.0011205364077757822   0.0011747651462396431   0.0011530673913014208
70.5140028005601   0.001185891707658856   0.0012321296608584886   0.0012144314854034145
71.51420284056812   0.0012529884834422845   0.0012928212368888536   0.0012782951187181616
72.51440288057611   0.0013215894501265029   0.0013571903590108617   0.001344714521179677
73.51460292058411   0.0013914579498375047   0.0014255865522397205   0.0014137462539165196
74.51480296059212   0.0014624927166410047   0.0014982088939661032   0.001485439984575641
75.51500300060012   0.00153484466609394   0.001574977369187058   0.0015598321523063784
76.51520304060811   0.0016086918437319495   0.001655783493650581   0.0016369579749267189
77.51540308061612   0.0016842118616864539   0.0017405209537986002   0.0017168529181318943
78.51560312062412   0.001761581800517181   0.0018290857118073139   0.0017995526950694968
79.51580316063212   0.001840978111500895   0.0019213761104395542   0.001885093265986083
80.51600320064013   0.0019225765193587026   0.0020172929777365284   0.001973510837949308
81.51620324064812   0.002006550635362394   0.0021167402458486056   0.0020648415294168792
82.51640328065612   0.0020930213404151514   0.002219644799967068   0.00215910817179171
83.51660332066413   0.0021820410039789283   0.0023259607782963906   0.002256315863841546
84.51680336067213   0.002273657880164883   0.002435642825212554   0.0023564685115802344
85.51700340068014   0.00236792083853647   0.0025486441252767903   0.0024595700365981064
86.51720344068814   0.002464879383931241   0.0026649163474405492   0.002565624365868423
87.51740348069613   0.0025645836763026454   0.002784409589240002   0.002674635421586952
88.51760352070414   0.0026670845505819252   0.0029070723209645684   0.002786607111038513
89.51780356071214   0.002772431268035798   0.0030328511521763506   0.002901542026764877
90.51800360072014   0.0028806373163170946   0.0031616882309534896   0.003019421956226074
91.51820364072815   0.0029916873602144085   0.003293522237538945   0.003140211719754659
92.51840368073614   0.0031055657735156025   0.0034282907728961456   0.003263875339039788
93.51860372074414   0.0032222574749323097   0.003565930404887588   0.003390376493557097
94.51880376075215   0.003341747926147164   0.0037063766462652613   0.0035196785010539965
95.51900380076015   0.0034640231298797793   0.0038495639325039836   0.0036517442979869205
96.51920384076814   0.003589069627969529   0.0039954255994711285   0.0037865364199050205
97.51940388077615   0.0037168711127127077   0.004143889714313635   0.003924013293374621
98.51960392078415   0.0038473887083866525   0.004294855427015196   0.00406410803370613
99.51980396079216   0.003980573561467692   0.004448209607494915   0.004206742843410859
100.52000400080016   0.0041163760024756635   0.004603838331617331   0.0043518391447775135
101.52020404080815   0.004254745545615422   0.00476162688446047   0.004499317585617803
102.52040408081616   0.0043956308593026865   0.004921459727457888   0.004649098013004338
103.52060412082416   0.004538979736612512   0.005083220465381646   0.00480109944685839
104.52080416083216   0.004684739051338344   0.005246791805155914   0.0049552400407534836
105.52100420084017   0.004832846321606975   0.0054120508128081115   0.00511142961432779
106.52120424084816   0.004983215560271705   0.00557886092274716   0.005269556993077563
107.52140428085616   0.005135756170896384   0.00574708244743589   0.005429506545707525
108.52160432086417   0.005290376684687596   0.005916574653841925   0.005591161463651264
109.52180436087217   0.0054469847390291965   0.006087195740542418   0.005754403731810105
110.52200440088018   0.005605487055798104   0.006258802814438303   0.005919114099036416
111.52220444088817   0.005765789419464113   0.006431251867081034   0.006085172048363125
112.52240448089617   0.005927796194657937   0.006604397400619326   0.006252455433756163
113.52260452090418   0.0060914000819809475   0.006778084361519392   0.006420833002731267
114.52280456091218   0.006256482223024791   0.006952147049515164   0.006590164254136152
115.52300460092017   0.006422922605132895   0.007126416500356404   0.006760306867294967
116.52320464092818   0.006590600522405655   0.00730072078798837   0.006931117018060939
117.52340468093618   0.00675939455819947   0.007474884973125467   0.007102449350205051
118.52360472094418   0.006929182567278381   0.007648731051606187   0.007274156946473965
119.52380476095219   0.007099841657612854   0.007822077902519564   0.007446091299310102
120.52400480096018   0.00727124623803067   0.007994745466903187   0.007618102498111605
121.52420484096818   0.007443259739294464   0.008166572902299564   0.0077900401238542825
122.52440488097619   0.007615740982257674   0.00833740484821693   0.007961752501396977
123.52460492098419   0.00778854731298791   0.008507084552837546   0.00813308632044287
124.5248049609922   0.00796153458493008   0.008675453849573057   0.00830388661078039
125.5250050010002   0.008134557139138585   0.008842353136614599   0.008473996717341847
126.52520504100819   0.008307467784123316   0.009007621356077241   0.008643258274894546
127.5254050810162   0.008480117646997758   0.009171096489734978   0.008811511373515636
128.5256051210242   0.008652350874186752   0.0093326368876124   0.008978602434732535
129.5258051610322   0.0088240027698737   0.009492129084217362   0.009144387126662459
130.5260052010402   0.008994906566029323   0.00964946062886528   0.009308720326349969
131.52620524104822   0.00916489391200624   0.009804518005900422   0.009471455338394559
132.5264052810562   0.009333794849408387   0.009957186620470147   0.009632443876407234
133.5266053210642   0.009501437786672092   0.010107350783946213   0.009791536044112526
134.5268053610722   0.009667649473373835   0.010254893699006538   0.009948580316110204
135.5270054010802   0.00983226196846244   0.01039969445653523   0.010103427849930076
136.5272054410882   0.009995141526824857   0.010541615575106137   0.01025595088490363
137.52740548109622   0.01015616258370262   0.01068051390383411   0.010406027689068429
138.52760552110422   0.010315195597397929   0.01081624577764685   0.010553535221177655
139.52780556111222   0.01047210702049457   0.01094866702727467   0.010698349115385076
140.5280056011202   0.010626759277099343   0.011077632986235566   0.010840343669640911
141.5282056411282   0.010779010739574272   0.011202998497592757   0.010979391833805478
142.52840568113623   0.010928713511941853   0.011324623101272623   0.01111536603803786
143.52860572114423   0.011075663298858101   0.011442491669647514   0.011248157858564912
144.52880576115223   0.011219602310435006   0.011556717264235739   0.011377678935173824
145.52900580116022   0.011360273767908203   0.011667416580333562   0.011503840963811643
146.52920584116822   0.011497424477279453   0.011774703929796734   0.01162655472622785
147.52940588117622   0.011630804832194449   0.011878691206648384   0.011745730085869328
148.52960592118424   0.011760168817133347   0.011979487852365623   0.011861275983593432
149.52980596119224   0.011885273956536763   0.01207720088626034   0.011973100444990581
150.53000600120023   0.012005832439163165   0.012171993266899847   0.012081121049763274
151.53020604120823   0.012121416430002465   0.012264194229900625   0.01218528436798397
152.53040608121623   0.012231565646961632   0.012354166917788324   0.012285541720586518
153.53060612122422   0.01233581106616387   0.012442279676839061   0.012381843973927512
154.53080616123225   0.012433674903641088   0.012528906102342923   0.012474141542336541
155.53100620124025   0.01252467059557843   0.012614425084862995   0.012562384390595453
156.53120624124824   0.012608302777111911   0.012699220857502925   0.012646522036351264
157.53140628125624   0.01268415568504308   0.012783599723246893   0.012726507047646746
158.53160632126423   0.012752473977303645   0.012867243743447833   0.012802318011853504
159.53180636127226   0.01281380637691552   0.012949548980363962   0.012873945475555097
160.53200640128026   0.012868704523055878   0.013029909847791031   0.012941380055739513
161.53220644128825   0.01291772135838926   0.013107720644349459   0.01300461238683397
162.53240648129625   0.012961411064244716   0.013182375626985082   0.013063633128937812
163.53260652130425   0.013000328996153292   0.013253269084294245   0.013118432976100288
164.53280656131224   0.013035018806649895   0.013319810969506764   0.013169003455526173
165.53300660132027   0.013065757652766845   0.01338173632945014   0.013215352748657106
166.53320664132826   0.013092572874320191   0.0134390851478205   0.013257505038987944
167.53340668133626   0.013115487467569648   0.013491904326857014   0.013295485529098332
168.53360672134426   0.013134530254310101   0.013540235389521335   0.013329319835831858
169.53380676135225   0.01314973600873902   0.013584114376586574   0.013359034002744696
170.53400680136028   0.013161145585411805   0.013623571742915348   0.013384654512695687
171.53420684136827   0.013168806081353053   0.01365863229062416   0.01340620840099155
172.53440688137627   0.013172772936381411   0.01368931877874735   0.013423731271339105
173.53460692138427   0.013173107917668408   0.013715658415730688   0.013437273231376445
174.53480696139226   0.013169872551651154   0.013737680857271674   0.013446886466804359
175.53500700140026   0.013163127552740076   0.01375541784969814   0.01345262389195887
176.53520704140828   0.013152932807035956   0.013768903273051823   0.013454539165214491
177.53540708141628   0.013139347356011185   0.013778173184612025   0.013452686704603669
178.53560712142428   0.013122429385881096   0.013783265872642734   0.01344712170697123
179.53580716143227   0.01310224133224343   0.013784230291932386   0.013437903046197547
180.53600720144027   0.013078860259512774   0.0137811408443098   0.013425098602632319
181.5362072414483   0.01305236733107293   0.013774076941467817   0.013408778600782026
182.5364072814563   0.013022845440122754   0.01376311875319667   0.01338901419811001
183.5366073214643   0.01299037923998631   0.013748347218943387   0.01336587750200368
184.53680736147228   0.012955055174790038   0.013729844059564542   0.013339441587004687
185.53700740148028   0.012916961510519624   0.01370769178927845   0.013309780512310963
186.53720744148828   0.01287618517206215   0.013681971064315708   0.013276969757041
187.5374074814963   0.012832801177729706   0.013652752155665969   0.013241087564279528
188.5376075215043   0.012786881789961662   0.013620103106899768   0.013202213659450459
189.5378075615123   0.012738499917503577   0.013584092653024129   0.013160428808725352
190.5380076015203   0.012687729126949586   0.013544790233849184   0.01311581483646337
191.5382076415283   0.01263464365452491   0.013502266007626416   0.013068454642943548
192.53840768153628   0.01257931841812156   0.013456590864970806   0.013018432222390134
193.5386077215443   0.012521829546937157   0.013407838550865163   0.012965832043080787
194.5388077615523   0.01246225685445182   0.013356095145087996   0.012910736200680126
195.5390078015603   0.012400682333515678   0.013301451698865012   0.01285322667248871
196.5392078415683   0.012337189286344096   0.01324400040903937   0.012793386498668471
197.5394078815763   0.012271862344531244   0.013183834633962343   0.012731299800175188
198.53960792158432   0.012204787490096087   0.013121048912772776   0.0126670517960491
199.53980796159232   0.01213605207682896   0.01305573898498269   0.01260072882100228
200.5400080016003   0.012065742976919886   0.012988000727755225   0.012532417186380464
201.5402080416083   0.011993936710852304   0.01291792449536971   0.01246219713386195
202.5404080816163   0.011920706335510447   0.012845599175115914   0.012390147181271578
203.5406081216243   0.01184612583959053   0.012771114748590719   0.01231634686113237
204.54080816163233   0.011770270164337564   0.012694562312958294   0.012240876742087485
205.54100820164032   0.011693215215567569   0.012616034097310092   0.012163818445040785
206.54120824164832   0.011615037875960361   0.012535623479327795   0.012085254659578742
207.54140828165632   0.011535813530336373   0.01245342364997856   0.012005267644185663
208.5416083216643   0.011455603120980902   0.012369520586624314   0.011923931332696655
209.54180836167234   0.011374462508476128   0.012283998152522532   0.011841317025229657
210.54200840168033   0.011292448311074236   0.012196941279172827   0.011757496948470371
211.54220844168833   0.011209617932166812   0.012108435988541834   0.011672544277029503
212.54240848169633   0.011126029576344067   0.012018569409247204   0.011586533147971943
213.54260852170432   0.011041742265670852   0.011927429793020335   0.011499538675600439
214.54280856171232   0.010956814807462693   0.011835104432436107   0.011411635007969774
215.54300860172035   0.010871301154661901   0.011741670372606018   0.011322886665427419
216.54320864172834   0.01078525408821608   0.011647201799001092   0.011233355445798482
217.54340868173634   0.010698727111448708   0.01155177382686577   0.011143103962396187
218.54360872174433   0.01061177446167388   0.011455462517280126   0.011052195659027847
219.54380876175233   0.010524451120607903   0.011358344890673276   0.01096069482260137
220.54400880176036   0.010436812824983112   0.011260498940601391   0.01086866659595799
221.54420884176835   0.01034891339646485   0.011162001091427062   0.010776174410501299
222.54440888177635   0.01026079619803035   0.011062918088925532   0.010683271766477001
223.54460892178435   0.010172502269278131   0.010963314821852657   0.010590010067478652
224.54480896179234   0.01008407322042496   0.010863257094466255   0.010496441407926318
